WetView ver 7.1	07-14-2018	13:21:07
AC9 Absorption and Attenuation Meter
00000266		; Serial number
2	; structure version number
Reserved
0.000000	0.000000		; Depth calibration
19200			; Baud rate
0.100000			; Path length (meters)
31			; number of temperature calibration bins
				12.59339	13.44920	14.48425	15.49668	16.50852	17.49564	18.50545	19.52458	20.50176	21.48889	22.47318	23.48707	24.50962	25.49370	26.49784	27.51372	28.50746	29.47237	30.47938	31.50214	32.50470	33.49235	34.50337	35.50914	36.50618	37.52058	38.51018	39.51308	40.49994	41.49866	42.47204	; temperature bins
a650	Blue	20.34952		-0.00383	-0.00415	-0.00430	-0.00391	-0.00363	-0.00317	-0.00269	-0.00237	-0.00179	-0.00130	-0.00099	-0.00071	-0.00015	0.00000	0.00004	-0.00001	0.00015	0.00036	0.00058	0.00101	0.00161	0.00132	0.00160	0.00169	0.00242	0.00273	0.00336	0.00365	0.00427	0.00566	0.00670		; offset and temperature correction info
a676	Green	20.51193		-0.00398	-0.00384	-0.00360	-0.00306	-0.00302	-0.00255	-0.00235	-0.00212	-0.00163	-0.00136	-0.00118	-0.00089	-0.00029	0.00000	0.00068	0.00082	0.00099	0.00137	0.00145	0.00212	0.00260	0.00252	0.00321	0.00354	0.00457	0.00535	0.00617	0.00648	0.00742	0.00887	0.01002		; offset and temperature correction info
a715	Brown	20.23230		-0.00421	-0.00394	-0.00391	-0.00291	-0.00264	-0.00192	-0.00204	-0.00179	-0.00188	-0.00239	-0.00180	-0.00187	-0.00099	0.00000	0.00084	0.00162	0.00188	0.00224	0.00321	0.00381	0.00466	0.00528	0.00588	0.00696	0.00859	0.01041	0.01148	0.01282	0.01333	0.01456	0.01617		; offset and temperature correction info
c510	Red	20.40042		-0.00261	-0.00247	-0.00258	-0.00225	-0.00203	-0.00197	-0.00199	-0.00203	-0.00154	-0.00103	-0.00069	-0.00019	-0.00007	0.00000	0.00011	-0.00021	-0.00042	-0.00056	-0.00040	0.00011	0.00036	0.00050	0.00077	0.00079	0.00050	0.00042	0.00043	0.00092	0.00147	0.00200	0.00232		; offset and temperature correction info
c532	Magenta	20.40760		-0.00248	-0.00265	-0.00278	-0.00279	-0.00296	-0.00292	-0.00238	-0.00206	-0.00129	-0.00096	-0.00092	-0.00052	-0.00009	0.00000	0.00007	-0.00049	-0.00136	-0.00107	-0.00079	-0.00065	-0.00074	-0.00105	-0.00152	-0.00192	-0.00236	-0.00269	-0.00252	-0.00233	-0.00172	-0.00128	-0.00067		; offset and temperature correction info
c555	Black	20.50654		-0.00053	-0.00063	-0.00106	-0.00094	-0.00068	-0.00055	-0.00053	-0.00039	-0.00028	-0.00025	-0.00011	-0.00035	-0.00007	0.00000	-0.00037	-0.00055	-0.00036	-0.00014	0.00019	0.00044	0.00032	0.00040	0.00050	0.00028	0.00014	0.00013	0.00030	0.00073	0.00117	0.00176	0.00241		; offset and temperature correction info
a412	LtBlue	17.15231		-0.01972	-0.01823	-0.01612	-0.01381	-0.01272	-0.01080	-0.00959	-0.00866	-0.00710	-0.00532	-0.00354	-0.00148	-0.00028	0.00000	0.00176	0.00297	0.00394	0.00440	0.00453	0.00487	0.00804	0.00856	0.01065	0.01248	0.01388	0.01439	0.01659	0.01881	0.02256	0.02450	0.02719		; offset and temperature correction info
a440	LtGreen	18.00171		-0.00729	-0.00642	-0.00581	-0.00502	-0.00426	-0.00349	-0.00244	-0.00218	-0.00179	-0.00101	-0.00046	-0.00006	0.00036	0.00000	0.00040	0.00045	0.00030	-0.00015	-0.00024	-0.00035	0.00012	-0.00013	-0.00033	-0.00089	-0.00142	-0.00189	-0.00231	-0.00205	-0.00140	-0.00140	-0.00146		; offset and temperature correction info
a488	Yellow	18.86491		-0.00113	-0.00102	-0.00106	-0.00064	-0.00027	-0.00020	-0.00030	-0.00037	-0.00047	-0.00059	-0.00052	-0.00012	0.00008	0.00000	0.00025	0.00012	-0.00013	-0.00043	-0.00065	-0.00076	-0.00025	0.00010	0.00090	0.00111	0.00113	0.00104	0.00073	0.00068	0.00120	0.00186	0.00258		; offset and temperature correction info
c650	Blue	20.46075		-0.00145	-0.00097	-0.00092	-0.00139	-0.00185	-0.00196	-0.00237	-0.00266	-0.00238	-0.00163	-0.00083	-0.00041	-0.00010	0.00000	0.00005	-0.00001	0.00015	0.00034	0.00029	0.00065	0.00101	0.00164	0.00126	0.00156	0.00175	0.00270	0.00287	0.00371	0.00407	0.00473	0.00534		; offset and temperature correction info
c676	Green	20.10118		-0.00170	-0.00144	-0.00149	-0.00177	-0.00188	-0.00194	-0.00198	-0.00196	-0.00177	-0.00156	-0.00140	-0.00091	-0.00033	0.00000	0.00050	0.00092	0.00110	0.00141	0.00167	0.00199	0.00216	0.00265	0.00269	0.00289	0.00315	0.00374	0.00367	0.00408	0.00486	0.00561	0.00646		; offset and temperature correction info
c715	Brown	19.91219		-0.01201	-0.01097	-0.00859	-0.00680	-0.00651	-0.00592	-0.00535	-0.00440	-0.00387	-0.00303	-0.00222	-0.00153	-0.00028	0.00000	0.00093	0.00149	0.00247	0.00322	0.00330	0.00427	0.00373	0.00464	0.00536	0.00551	0.00643	0.00733	0.00779	0.00884	0.00899	0.01021	0.01120		; offset and temperature correction info
a510	Red	19.21192		0.00201	0.00193	0.00158	0.00098	0.00089	0.00049	0.00011	-0.00016	-0.00016	-0.00005	0.00028	0.00025	0.00006	0.00000	0.00035	-0.00022	-0.00023	-0.00080	-0.00144	-0.00154	-0.00153	-0.00204	-0.00220	-0.00219	-0.00190	-0.00128	-0.00069	-0.00018	0.00068	0.00152	0.00241		; offset and temperature correction info
a532	Magenta	19.41084		-0.00097	-0.00072	-0.00060	-0.00081	-0.00062	-0.00071	-0.00040	0.00020	0.00028	0.00043	0.00000	-0.00035	0.00007	0.00000	-0.00011	-0.00059	-0.00080	-0.00098	-0.00137	-0.00162	-0.00163	-0.00130	-0.00073	-0.00018	0.00090	0.00185	0.00175	0.00247	0.00291	0.00327	0.00349		; offset and temperature correction info
a555	Black	19.69776		0.00171	0.00183	0.00183	0.00186	0.00191	0.00170	0.00115	0.00131	0.00097	0.00073	0.00060	0.00013	0.00015	0.00000	0.00014	-0.00029	-0.00066	-0.00082	-0.00116	-0.00139	-0.00134	-0.00167	-0.00119	-0.00093	-0.00048	0.00053	0.00111	0.00095	0.00178	0.00206	0.00273		; offset and temperature correction info
c412	LtBlue	19.91180		-0.02051	-0.01853	-0.01589	-0.01311	-0.01059	-0.00877	-0.00705	-0.00581	-0.00413	-0.00231	-0.00098	-0.00066	-0.00011	0.00000	-0.00013	-0.00085	-0.00170	-0.00170	-0.00302	-0.00330	-0.00429	-0.00551	-0.00626	-0.00775	-0.00978	-0.01181	-0.01113	-0.01108	-0.01116	-0.01192	-0.01291		; offset and temperature correction info
c440	LtGreen	20.06241		-0.01064	-0.00992	-0.00892	-0.00766	-0.00639	-0.00531	-0.00478	-0.00384	-0.00287	-0.00187	-0.00102	-0.00063	-0.00023	0.00000	-0.00007	-0.00053	-0.00090	-0.00119	-0.00169	-0.00197	-0.00226	-0.00257	-0.00260	-0.00289	-0.00394	-0.00470	-0.00481	-0.00493	-0.00520	-0.00580	-0.00620		; offset and temperature correction info
c488	Yellow	20.35984		-0.01125	-0.01082	-0.00966	-0.00833	-0.00726	-0.00661	-0.00579	-0.00500	-0.00389	-0.00278	-0.00167	-0.00113	-0.00041	0.00000	0.00055	0.00121	0.00187	0.00226	0.00222	0.00251	0.00281	0.00359	0.00414	0.00427	0.00401	0.00404	0.00486	0.00563	0.00638	0.00684	0.00718		; offset and temperature correction info
0.003500	0.004000	0.015000	0.020000	0.015000	0.020000	2500.000000	2000.000000	1000.000000	; maxANoise	maxCNoise	maxADifference	maxCDifference	minACounts	minCCounts	minRCounts	maxTempSdev	maxDepthSdev
0			; auxilliary capabilities
1			; acquisition binsize
0	7.66465	7.65613	6.20352	28.26035	25.15938	21.44097	44.08117	31.37989	19.03481	16.41833	18.53899	18.93813	15.76490	13.34295	11.65436	57.45690	39.72605	32.63537	28.98	6.0	0.00	7.57	0.01271	0.01291	0.01641	0.00784	0.00583	0.00640	0.00469	0.01269	0.01686	0.00679	0.00693	0.00883	0.01492	0.01096	0.01198	0.00220	0.00624	0.00873
160	7.38952	7.11135	6.29717	34.73247	26.22304	22.58602	45.32266	31.53649	19.42687	17.70302	19.63048	25.25510	15.49158	13.32716	11.85167	53.86818	42.87788	29.06061
330	7.96512	7.25934	6.17996	26.09258	27.94185	24.22679	42.98873	30.32113	18.79019	19.52749	18.12219	17.60944	15.98644	13.28632	11.48091	56.26879	38.20759	26.77696
490	7.81670	6.52773	5.54777	23.76569	21.59528	19.05744	42.33155	29.61301	18.31991	15.89363	15.54039	19.35480	16.20125	14.93766	12.35225	52.92023	39.96440	28.27501
650	8.09933	6.90979	7.01031	26.85239	24.56364	22.66715	43.47747	30.47741	18.32621	19.86806	18.53730	15.35366	15.88258	13.53368	12.14767	52.35559	40.78436	29.86154
820	8.39321	7.80870	6.42011	26.58654	25.40535	24.58899	42.93494	29.80400	19.10489	21.22770	18.59784	18.56283	15.94106	13.06661	11.66523	58.15179	48.68321	35.49798
980	7.85155	7.52394	6.52178	35.04533	28.65569	27.22157	43.97644	30.65214	19.15249	22.49146	22.04593	21.72929	15.80775	13.27445	11.63907	59.12849	42.53303	30.20585
1140	6.95284	6.25330	5.02249	24.77527	22.96662	21.66809	41.72382	30.14002	17.81194	16.00634	14.28886	13.76266	14.45676	12.37450	10.80978	52.17652	40.46472	25.44401
1310	7.33261	6.55893	4.55962	23.01188	20.37636	19.20714	41.82833	28.76409	16.92875	15.04071	12.72524	14.66890	14.11128	12.18700	10.86331	49.71432	36.16490	24.64406
1470	7.46142	5.91494	5.20768	21.38053	20.25423	24.11292	43.90230	30.84592	18.30312	14.68351	16.28931	13.65299	14.60666	12.60700	10.68563	52.06115	39.79662	28.30579
1630	5.92292	5.32862	4.11392	26.25256	25.55252	24.15579	41.57607	29.51573	17.71787	13.97779	13.38444	14.29417	14.06401	11.87906	10.04323	51.93186	37.37321	23.76827	28.98	6.0	0.00	7.52	0.01271	0.01291	0.01641	0.00784	0.00583	0.00640	0.00469	0.01269	0.01686	0.00679	0.00693	0.00883	0.01492	0.01096	0.01198	0.00220	0.00624	0.00873
1800	5.93075	5.14813	4.15083	24.96902	21.02858	18.32022	41.41639	29.07559	17.10138	14.49857	14.18762	13.73101	15.65064	12.29928	10.13563	53.58727	41.30397	24.78020
1960	5.74316	5.39414	4.49676	20.56624	19.22767	16.83271	41.25781	28.44538	16.75403	11.87595	10.77702	9.95617	14.04994	12.44508	10.29741	48.52156	35.09945	23.40089
2120	6.12537	5.67273	4.71521	20.56601	18.24485	17.00735	41.65540	28.84069	17.06499	17.29158	15.86440	11.61318	14.12440	11.85403	10.17071	49.43872	39.10585	29.00422
2290	6.21282	5.73921	4.39441	21.67863	19.30804	18.16322	41.49591	28.61498	17.11983	13.90927	14.57073	14.65665	14.69554	14.31594	10.96337	53.04412	43.00830	37.75418
2450	6.47504	6.14239	5.39727	25.88101	23.29805	23.48154	42.49980	29.70937	18.03191	17.93653	19.11705	16.58645	14.59828	13.95016	10.99979	54.16163	38.39682	25.56194
2610	7.74888	6.53543	5.57163	21.90328	20.35365	17.75755	43.10856	31.76325	18.19012	20.97083	22.71590	19.06515	16.96945	16.46371	14.15654	63.56470	43.52981	26.38579
2780	7.27649	6.87554	5.49812	27.43940	29.27464	25.43915	41.78903	29.30698	21.29298	26.43031	25.78963	18.52634	15.68332	16.58917	19.41139	60.87078	50.71826	42.16357
2940	27.80197	20.37329	16.84381	30.43033	33.61524	54.93551	60.86542	41.36860	27.76076	92.94906	89.72477	98.89043	32.05289	29.26402	29.39666	92.48976	135.64521	103.19641
3100	25.68166	28.59243	29.18869	108.31949	106.98308	95.74589	47.66600	37.36886	29.77645	108.56142	45.44153	91.17253	30.65433	31.77094	24.98506	91.39777	135.64521	113.65609
3270	17.80725	23.64278	18.83787	90.56952	92.54649	90.09853	46.03089	43.45299	33.62816	39.27462	44.26842	58.97477	29.63634	23.09782	20.97192	88.17760	101.97246	93.66133	29.03	6.0	0.00	7.44	0.01271	0.01291	0.01641	0.00784	0.00583	0.00640	0.00469	0.01269	0.01686	0.00679	0.00692	0.00882	0.01492	0.01096	0.01198	0.00220	0.00624	0.00873
3430	14.19983	16.06894	12.28049	79.16840	77.50571	105.90303	49.98332	34.85302	26.18069	46.79522	56.65612	61.88187	25.53324	19.14547	16.58835	125.06639	106.20103	103.46962
3590	14.51147	12.47571	12.09438	64.54890	70.51270	71.32036	48.96571	36.16134	25.31842	86.14040	43.56865	64.74971	22.80175	23.66197	16.65078	87.45439	99.26956	108.39439
3760	12.67910	11.40585	11.19733	67.52674	52.70305	46.58311	43.33201	29.04304	21.13910	53.42097	56.04243	71.91734	17.54060	16.50550	15.96191	82.58144	96.93341	99.79238
3920	13.85809	15.98033	15.87976	94.45610	90.65407	70.85175	55.90944	42.91846	31.50542	87.98864	93.68581	115.93564	33.98129	31.40591	33.75494	91.05442	113.67317	94.76134
4090	28.49262	30.42608	26.45598	104.60341	59.79602	90.70478	55.25104	47.05461	31.48230	93.45408	94.24151	63.98387	34.52762	25.45168	21.88174	78.52679	99.26956	66.04016
4250	27.65694	22.32992	21.26234	80.28544	88.49183	89.16327	52.41160	35.16467	31.15870	84.11099	94.38540	104.94951	25.86622	27.22526	23.13659	86.14819	87.12512	80.16978
4410	19.96121	16.10471	18.36560	100.20974	102.35478	93.58160	43.01126	43.76374	26.89163	100.25652	96.83662	97.53014	25.97608	21.62657	22.30004	86.35438	93.16047	84.29223
4580	12.37837	15.76917	12.97632	96.08129	94.70872	90.00097	49.64013	40.06665	21.96687	93.07187	83.94531	70.33391	15.44886	13.34674	15.59909	81.24612	93.74887	94.30672
4740	7.45437	10.55233	12.08058	60.54463	60.59952	64.57043	44.43863	33.70663	21.72371	24.11264	21.08799	31.67806	20.92364	18.03666	17.03070	61.11377	42.27657	32.01832
4900	11.41109	8.51767	11.13455	34.69619	48.31999	49.30353	43.38012	33.64436	18.41594	31.49178	21.09529	38.28039	14.39692	11.67389	10.00977	62.22505	55.09036	38.49627	28.98	6.2	0.00	7.47	0.01271	0.01291	0.01641	0.00784	0.00583	0.00640	0.00469	0.01269	0.01685	0.00679	0.00692	0.00882	0.01492	0.01096	0.01198	0.00220	0.00624	0.00873
5070	8.41223	9.18609	9.25652	48.81698	31.70878	45.65387	43.70428	33.15024	23.85650	59.68020	29.62656	52.72723	22.48637	19.67452	21.16287	81.62834	64.65310	49.97641
5230	15.19479	14.01187	18.52066	71.07332	93.72464	54.18767	46.43731	40.23286	28.77761	54.01145	55.97369	81.36995	23.34528	20.42965	17.46023	88.69053	109.25454	74.62683
5400	18.69646	15.11992	15.14139	58.84480	70.69879	61.10834	50.05894	37.43282	24.96580	89.18240	75.94687	59.63534	24.56227	21.71342	26.19716	107.14880	100.68004	95.35932
5560	17.84179	16.77025	14.03016	101.89966	96.19324	98.06214	60.51915	44.55198	31.15638	98.60284	113.69744	138.95896	26.28590	20.16181	29.27443	98.67582	100.98776	139.30381
5720	16.10302	21.68155	31.05860	98.57260	98.17775	108.62266	39.39346	40.06463	37.76094	91.67136	82.92432	64.46980	25.90555	20.66513	21.41535	125.06639	80.71450	86.42114
5890	17.01363	18.63692	25.52986	37.82261	39.38537	31.00788	50.17236	35.27914	31.79850	40.27000	33.21531	31.07196	16.50534	18.18563	16.74816	82.16180	83.94028	103.75033
6050	13.66980	18.84802	17.92472	97.84501	101.30150	136.34855	59.68883	33.37565	23.11198	83.41817	77.91796	86.28038	24.48101	17.07884	15.37603	84.63588	105.19989	121.38622
6220	14.32947	12.48108	7.97923	97.50015	89.46380	36.66892	40.87827	27.98674	16.73864	39.13384	45.58830	71.84156	13.47562	11.22231	9.58828	94.15597	105.19989	139.30381
6380	5.33976	4.78327	3.65251	112.62603	93.11839	136.34855	40.81298	34.02210	25.45733	101.05406	95.94792	102.07017	20.69078	21.45218	19.97998	87.68969	119.55074	90.94099
6540	19.23696	14.18990	17.61235	98.95689	82.08398	92.52726	54.32912	40.04295	33.85845	87.61504	89.62506	103.12040	27.60195	25.77392	27.07216	104.27360	111.66588	103.19436	28.98	6.2	0.00	7.47	0.01271	0.01291	0.01641	0.00784	0.00583	0.00640	0.00469	0.01269	0.01685	0.00679	0.00692	0.00882	0.01492	0.01096	0.01198	0.00220	0.00624	0.00873
6710	21.49287	20.46493	17.54031	115.24929	94.88357	95.57215	53.55815	42.83314	32.91271	104.30662	136.72036	104.94361	29.30970	27.66022	22.66079	86.14981	101.30496	110.39982
6870	27.50155	26.53444	21.20053	118.81604	85.96934	91.46116	51.62002	41.90293	35.80583	48.53984	33.60487	32.51635	36.23624	32.63821	35.68814	73.71003	82.12625	48.02526
7030	27.45525	20.41926	17.23623	42.80487	45.01032	55.00285	43.50317	36.80864	26.09005	41.56987	20.36504	32.50896	17.33380	14.79866	11.06877	125.06802	100.67975	79.26467
7200	7.69621	10.35326	8.18410	98.95689	97.93739	97.22730	45.89964	37.32623	32.46299	95.77884	102.38049	90.67245	31.82354	24.98915	32.11954	99.41852	97.35841	101.23692
7360	23.01688	28.90184	20.58671	101.89928	93.72525	94.91618	56.09488	48.37877	33.44209	109.16169	97.01745	95.91493	29.57049	26.50632	27.30216	94.15759	101.97187	108.39312
7520	22.39366	21.34918	18.46457	89.99201	79.32986	99.21181	53.35176	45.31145	29.55398	53.81052	58.97181	81.24117	30.10010	27.81805	23.01543	62.04183	42.32456	34.76551
7690	18.60184	18.24509	17.81443	27.77959	30.21831	20.26963	54.90595	46.42638	29.45345	25.11641	34.24463	36.16825	25.98423	24.97273	26.05438	80.64151	63.49978	45.59682
7850	17.20855	17.08360	20.14968	60.56869	98.93822	93.72073	52.78387	43.89945	32.91228	96.63406	105.80994	125.09264	28.49369	25.95590	24.16317	105.60892	108.56433	116.27769
8010	19.33041	19.16296	18.79319	98.38530	80.38347	72.32835	54.20936	42.71842	29.14284	68.58964	62.61085	69.40920	29.05458	29.15092	29.12593	51.80336	43.91948	42.95334
8180	21.61858	21.82226	21.60245	42.73572	48.39123	53.09372	48.37042	44.07577	30.52491	52.57325	75.89912	57.96214	19.32146	23.04586	20.99484	86.15198	80.19344	86.94103	28.98	6.2	0.00	7.49	0.01271	0.01291	0.01641	0.00784	0.00583	0.00640	0.00469	0.01268	0.01685	0.00679	0.00692	0.00882	0.01492	0.01096	0.01198	0.00220	0.00624	0.00873
8340	14.50586	21.59074	18.20672	78.33682	80.18184	68.88508	48.52754	34.90267	25.63844	43.54192	47.26147	38.57575	23.76378	16.68945	18.09233	83.17364	66.37944	56.85686
8500	10.50448	9.73831	7.43910	35.76214	43.88267	41.34451	46.89180	33.53671	19.67799	32.13138	28.11537	34.68025	16.58571	16.61589	14.75210	60.58129	45.81709	42.33160
8660	11.85958	10.44139	9.61709	48.35832	51.81892	45.56284	44.65240	30.30309	21.61079	22.23252	32.26261	20.00387	18.70108	16.14306	13.28285	73.95031	54.61329	39.94784
8830	8.76154	8.86573	7.58571	30.51901	23.35647	26.36193	44.79473	31.91913	20.52978	12.10485	10.42164	12.97251	17.24668	13.71203	12.81974	48.85824	37.34572	23.70526
8990	9.65000	9.06411	8.74903	26.87537	27.36107	25.58285	44.07429	33.77866	19.83520	16.51436	18.93348	20.57034	18.21772	16.80620	13.79520	65.30668	45.80454	36.82936
9150	9.56615	11.72788	6.69514	28.86604	19.91929	16.39124	43.01975	30.45457	17.71302	15.91375	26.76368	12.32970	16.92946	15.17048	13.10234	50.48833	36.82819	30.97535
9320	11.01822	6.20191	5.16287	30.05568	32.78173	30.22781	43.98080	29.82328	22.76693	24.24752	23.24658	14.96891	19.64288	17.31776	15.60235	53.72925	39.55673	28.78846
9480	10.01268	8.49099	7.47404	19.47114	17.69510	16.93145	44.96167	32.39399	19.62450	12.47302	11.02030	10.15148	15.11847	11.27996	9.69168	49.75466	39.99798	27.91513
9640	6.82309	5.56844	5.05167	37.80489	23.61065	22.99078	41.05107	28.19825	16.30598	13.51066	13.78904	19.75779	15.76911	14.21849	10.94420	56.70759	44.01797	30.68436
9810	7.37137	7.09946	5.30939	19.89378	19.38503	23.24690	41.54390	29.40359	18.35029	13.84255	13.48794	14.02311	15.72193	12.39699	10.39433	57.67763	39.98809	37.56810	29.03	6.3	0.00	7.48	0.01271	0.01291	0.01641	0.00784	0.00583	0.00640	0.00469	0.01269	0.01685	0.00679	0.00692	0.00882	0.01492	0.01096	0.01198	0.00220	0.00624	0.00873
9970	5.95695	6.43757	5.42452	29.13072	23.72485	26.53422	41.47703	28.84499	17.09641	17.00125	26.19071	23.44702	15.32927	13.90437	13.13277	55.47701	45.30791	33.23442
10130	7.59562	5.88131	5.86938	32.02879	24.18829	19.49335	44.57555	29.83182	18.43189	14.66532	17.71269	14.97915	15.55465	12.09854	10.50071	54.31291	40.01476	25.45857
10300	6.07023	5.76068	4.91638	20.71598	27.09764	18.77606	42.14350	28.32479	18.22567	16.59624	14.62679	17.99080	16.52112	13.35058	10.83583	53.17932	41.24650	33.69343
10460	7.76352	6.07112	6.41561	26.44480	23.92223	23.13848	43.30836	29.50014	18.51873	20.75606	13.51385	13.06067	15.62984	12.71163	10.94290	50.93130	36.90661	27.30905
10630	6.62603	5.99733	4.98145	22.72740	21.77888	21.05968	42.01883	28.99055	17.04285	18.12867	18.44832	15.33652	16.00074	11.49586	12.47048	57.20383	44.05256	27.89507
10790	6.85853	7.56610	5.32716	23.70882	21.60325	19.71001	43.28403	30.69174	18.84164	17.80686	16.47551	14.66129	15.34964	12.83972	10.84359	50.91323	40.08812	33.45560
10950	7.34605	5.85777	5.81842	23.08254	23.75395	23.41127	44.26442	31.30871	20.95806	17.44268	14.72508	13.19857	18.16450	14.84931	13.19668	54.53514	39.50777	25.80236
11120	8.72320	8.19476	6.47826	23.15294	21.21299	17.97400	42.49175	29.14355	18.01702	14.55867	15.62428	14.44460	14.92505	11.97544	10.20914	50.15455	37.46529	28.23594
11280	8.05821	6.41969	5.11732	30.32640	27.94294	25.02063	41.21111	29.03039	17.43275	15.74020	14.60967	13.74377	14.69202	13.47994	11.47553	53.51704	38.95293	27.03855
11450	7.30012	7.88441	5.31680	22.68600	20.15398	18.64235	42.47700	31.09877	19.90345	18.56055	17.14941	14.83618	18.44297	15.19072	13.93213	64.61851	38.58690	24.87001	29.03	6.2	0.00	7.54	0.01271	0.01291	0.01641	0.00784	0.00583	0.00640	0.00469	0.01269	0.01685	0.00679	0.00692	0.00882	0.01492	0.01096	0.01198	0.00220	0.00624	0.00873
11610	10.87919	9.51812	8.66412	27.34083	27.36485	26.58927	46.41467	32.94992	20.43225	26.31178	19.01659	12.99867	14.74096	12.55747	10.70124	50.57940	41.27184	25.91756
11770	6.64099	6.43448	5.39577	29.40037	26.54792	24.41246	42.70370	29.72072	21.56703	20.43726	23.29250	17.07697	15.52964	13.89154	14.00571	61.25040	46.70321	34.44565
11940	9.11831	8.64471	6.53819	30.50138	21.94058	22.05273	44.10426	31.65118	18.57952	15.78632	14.30205	13.38097	14.61941	12.90533	10.95838	53.46787	42.44131	30.75438
12100	7.23433	7.80419	9.81532	32.53371	40.65044	31.56844	44.73208	32.84986	20.04607	28.08895	21.82109	22.47980	20.31154	14.94058	16.67595	62.13437	41.57687	28.18277
12260	11.58683	11.03976	8.88823	38.56711	30.24597	24.61517	44.56301	31.72856	18.79967	22.68939	25.41733	27.77661	15.60175	12.67371	11.79265	60.26811	42.50420	32.86619
12430	9.15718	6.96308	6.42917	32.39255	28.30504	31.59465	44.92449	31.88421	20.86855	14.55841	13.82523	12.64239	17.26746	16.30682	13.94808	50.60855	37.87961	25.52273
12590	10.16878	6.91404	5.68795	22.32592	20.96751	24.09308	43.81827	32.77774	19.75270	17.19253	13.22903	12.33382	18.25663	14.98922	15.51235	51.65372	39.44384	30.25038
12750	12.72227	7.91588	7.66903	33.79454	26.06730	24.84447	42.98606	30.85882	17.39372	19.18574	19.51971	20.01511	16.27344	13.85475	12.78943	56.75982	57.38137	30.17812
12920	9.23370	8.20928	7.27596	30.90286	33.42231	28.53672	43.18513	32.68183	19.33671	15.48880	16.83619	14.13921	17.72517	14.84532	15.67731	61.23349	47.29079	37.03586
13080	11.06980	8.44151	8.67346	34.08020	28.28395	25.31716	43.72755	31.02836	19.47573	22.99858	17.00677	14.24560	19.01889	16.30150	12.25741	51.45659	42.27751	34.36410	28.98	6.1	0.00	7.56	0.01271	0.01291	0.01641	0.00784	0.00583	0.00640	0.00469	0.01269	0.01685	0.00679	0.00692	0.00882	0.01492	0.01096	0.01198	0.00220	0.00624	0.00873
13250	9.06536	6.97950	4.86063	28.64413	36.71574	35.64860	42.15292	30.35735	19.83992	17.51658	17.00279	21.01337	14.78232	12.74875	12.04993	72.14364	53.89651	42.43807
13410	7.11984	11.16304	9.40729	33.66886	32.69579	32.15954	46.62374	35.54051	22.69841	17.88444	15.16297	12.32759	19.06088	16.45269	13.00396	51.08883	38.26023	32.17214
13570	9.05188	10.19984	8.03535	31.41854	26.02424	21.02893	43.79673	30.56939	20.26577	15.99769	16.67100	26.74187	16.19472	14.52712	13.83405	61.17428	43.11811	34.78682
13740	9.38301	7.32121	6.43218	32.55572	31.57631	31.69365	44.36616	31.31826	18.99218	20.32610	15.99031	20.56594	15.45734	12.74817	11.42861	61.83310	42.68668	28.19739
13900	6.82415	7.17819	6.31250	22.43112	19.47406	20.42490	42.58364	30.70453	18.01323	18.72799	15.42738	16.40450	15.56129	15.61898	12.17651	58.73036	56.88377	50.22843
14060	7.13300	8.12538	6.77075	30.07711	27.56088	26.57371	45.43245	33.37170	18.72157	27.81263	29.51069	27.42552	16.31097	13.76036	13.66060	57.99585	43.95743	49.35527
14230	10.53008	9.74593	9.74668	37.67765	33.14226	33.70637	46.58504	31.59960	21.45809	26.87193	22.00506	20.79841	18.84543	18.29145	14.57099	52.90226	37.79088	28.15859
14390	8.79337	8.74537	7.77562	26.51939	22.76494	22.69808	44.18601	31.03787	22.75560	35.25555	22.17901	23.33126	20.46618	17.53339	14.78287	61.29243	43.86405	47.90402
14550	10.18292	8.30213	9.21789	29.12059	25.40477	30.16979	43.76208	32.50869	19.38695	28.40382	26.42361	23.21522	15.65563	15.15185	13.31925	56.50155	44.19367	30.66161
14720	7.61824	8.20565	6.56109	29.93747	32.41295	36.76150	49.62468	34.40853	22.56070	20.59944	16.47931	14.82374	20.90045	15.30718	16.42494	55.30496	40.66516	27.15962	29.03	6.1	0.00	7.51	0.01271	0.01291	0.01641	0.00784	0.00583	0.00640	0.00469	0.01269	0.01685	0.00679	0.00692	0.00882	0.01491	0.01096	0.01198	0.00220	0.00624	0.00873
14880	10.97936	9.28592	9.42174	23.08451	21.79163	19.44328	44.88585	32.14481	17.85871	16.08185	13.11929	11.98358	14.45397	12.39161	11.08830	50.94410	43.54473	27.62642
15040	9.46964	8.63294	7.62219	23.41214	23.42847	29.11499	45.21524	31.98376	21.51616	33.91068	31.05258	23.25470	18.34662	14.11262	14.17911	68.14045	54.33277	30.92751
15210	10.84522	8.93142	5.78888	24.71645	26.61045	25.50571	47.55627	30.80952	19.16823	26.68326	41.30591	34.47853	16.78937	16.07438	16.06321	57.46205	43.78568	36.09718
15370	9.12992	9.93012	11.41632	33.81027	37.36399	42.23223	46.89210	32.29691	23.15266	29.34008	21.51111	25.01820	20.52697	14.71685	15.01594	53.72887	39.19991	28.85053
15530	9.69940	9.30207	7.47280	27.32024	56.76199	39.83745	43.04464	30.10721	18.65664	28.45047	25.92395	25.64636	15.57036	13.65521	14.37419	75.10565	53.93762	47.81258
15700	9.43256	8.33786	6.86650	33.57797	37.99638	37.97601	44.79052	33.39122	24.41486	24.62354	23.34032	21.28886	19.96745	16.51626	15.83250	56.97635	41.69105	28.22028
15860	11.08023	10.27249	9.12043	26.83228	37.53026	36.74543	47.67138	34.37900	22.60415	22.29253	28.14298	23.36893	18.72974	15.30159	14.46698	67.33226	72.27688	47.74056
16020	9.43092	9.68556	7.49624	61.56147	54.38893	54.38352	43.40537	30.84136	18.04463	51.73165	33.53003	21.58284	14.89711	12.16294	10.65074	63.03220	49.95297	28.90719
16190	7.66437	9.23832	9.16146	24.02332	21.50021	19.76292	43.96745	35.29953	24.55546	19.76972	15.47930	13.68622	24.17582	19.34756	18.73122	52.71438	40.31872	28.55164
16350	12.07975	10.95278	8.11943	24.05041	22.10872	24.60975	43.66679	31.63521	19.97347	36.23384	36.73520	28.06314	16.77019	19.22078	13.46395	79.74907	57.76669	39.19352	29.03	6.1	0.00	7.55	0.01271	0.01291	0.01641	0.00784	0.00583	0.00640	0.00469	0.01268	0.01685	0.00679	0.00692	0.00882	0.01491	0.01096	0.01198	0.00220	0.00624	0.00873
16510	10.71346	9.59243	8.44457	27.96064	40.83850	37.60707	44.07907	31.81669	18.26712	46.30858	32.23437	21.21964	16.80048	14.33673	13.63899	80.76690	67.03802	62.46989
16680	8.04631	6.83449	5.34948	51.73741	37.42097	50.55110	43.25179	29.24023	17.05423	33.26432	34.73341	22.35586	15.51737	14.60423	10.96385	65.33697	59.86832	32.59022
16840	8.14870	8.72997	6.30966	27.15800	26.15707	23.25313	43.95953	31.40584	20.92985	18.55863	16.42643	23.51673	21.93423	18.63155	19.35912	51.92954	37.64063	26.16784
17000	12.42239	9.83231	9.31085	23.32769	21.51632	27.18390	45.14061	34.16161	20.99034	16.83334	16.21885	19.11311	16.56413	13.70838	12.52272	73.03500	54.12267	41.10504
17170	6.80243	6.92031	5.41593	30.64480	24.53899	23.84661	43.86896	30.95133	18.95681	34.86234	23.12768	20.15814	16.50755	13.21358	11.95477	68.17147	57.74597	39.43944
17330	7.38576	6.79602	6.17711	38.58473	44.12858	28.79154	45.00365	35.60198	22.87750	30.21769	32.08878	23.57495	18.54783	15.43790	12.92306	61.07249	54.70087	33.88029
17490	8.76252	9.44353	7.14360	35.29770	32.23379	28.74580	44.05467	32.03646	21.69333	34.70309	18.91383	18.77766	16.94460	13.91835	13.53629	55.80929	40.12097	27.26495
17660	7.65902	8.01649	4.76735	23.80497	20.46818	18.49360	41.89057	29.00363	17.11515	16.21001	19.16764	21.15032	13.78245	11.49598	13.44284	55.41482	48.11884	35.93825
17820	8.33602	10.14168	8.76146	28.05005	21.32794	19.72025	43.99487	31.12438	19.80214	20.08560	15.31682	13.70075	15.62522	13.04730	11.74524	56.41615	43.20014	28.26865
17980	10.14307	8.39089	7.16802	23.96113	21.42416	20.34398	45.60731	33.02553	19.74302	18.82890	21.34820	20.91953	18.04864	15.35796	14.95432	52.81243	37.81847	25.73270	29.03	6.1	0.00	7.48	0.01270	0.01291	0.01641	0.00784	0.00583	0.00640	0.00469	0.01269	0.01685	0.00679	0.00692	0.00882	0.01491	0.01096	0.01198	0.00220	0.00624	0.00873
18150	10.02214	10.88695	8.53417	24.76915	22.97827	23.94009	44.70369	31.80104	19.08288	28.38368	18.74583	13.85814	16.17080	15.51429	15.03590	60.04662	49.41832	38.94322
18310	9.82874	8.47332	6.43621	39.73744	34.57836	37.49913	43.84008	29.73262	19.18844	28.09430	18.05499	18.49196	15.56976	12.94092	11.36801	59.72211	50.84559	56.10898
18470	6.65803	6.28374	5.64423	45.50879	41.82778	38.60057	42.61081	29.59717	17.11198	26.17546	36.28565	32.50912	14.28856	12.32980	10.72243	60.82583	48.20455	33.81380
18640	5.95176	5.55452	4.81364	29.48390	26.58340	18.58869	42.71354	31.80179	22.77310	14.48961	16.40583	17.04858	16.68858	17.02095	14.78988	51.65321	40.75433	31.12015
18800	13.05340	9.72801	10.53675	33.16029	24.79282	33.24855	45.53099	32.84811	21.88459	28.83955	22.47444	20.71417	17.15915	13.99257	11.33861	60.80964	47.97604	41.97910
18960	5.78150	5.26215	4.02866	36.53596	27.49973	27.23019	41.77998	28.58712	17.17149	23.22485	21.47614	20.61159	14.45696	11.55054	10.13970	51.51811	38.07681	26.05078
19120	9.35890	7.22345	6.26043	36.33839	27.11910	25.23740	43.33568	30.50819	18.53117	19.65370	23.81198	23.24248	17.02595	15.97532	13.38328	59.37971	43.88924	30.05495
19290	7.87910	7.97683	8.37766	31.96701	33.88433	30.97584	43.70886	31.41796	21.00736	16.51681	14.46563	15.13252	19.37881	14.30610	13.33042	60.36653	43.59138	32.08670
19450	7.74317	10.06254	7.76393	26.79724	21.91109	18.63146	43.59722	30.25732	18.01496	13.35571	12.29524	11.36206	14.99720	12.92266	10.73617	49.38041	36.31371	24.60573
19620	7.13548	7.64212	9.22185	22.48750	29.87352	29.65498	43.34970	31.43119	20.09560	21.97788	19.48590	15.64663	17.67882	14.43239	14.97192	71.55892	53.76610	44.20080	29.03	6.1	0.00	7.54	0.01270	0.01291	0.01641	0.00784	0.00583	0.00640	0.00469	0.01268	0.01685	0.00679	0.00692	0.00882	0.01491	0.01096	0.01197	0.00220	0.00624	0.00873
19780	13.71217	9.87748	8.77309	56.67591	57.81325	54.28509	43.67830	33.00449	19.36124	26.14229	21.51107	22.98580	17.53939	15.38040	13.38034	66.99608	46.14971	38.68926
19940	6.20670	5.47475	4.14329	32.76319	30.79438	24.81329	43.04511	29.45194	18.43847	14.01079	12.09940	14.78446	17.58888	13.42210	12.91675	58.40794	40.53650	30.86617
20110	7.69948	8.86674	6.82068	29.70502	29.32178	26.97981	42.84044	30.00601	18.13055	24.44715	23.47190	16.16634	15.31824	12.06262	10.06760	57.61338	40.65943	30.49958
20270	8.58681	9.16472	10.66182	30.37477	41.53030	42.78894	48.78596	38.92919	29.54793	53.34694	62.86476	74.55020	23.05292	21.60190	18.80598	92.49654	101.30478	111.57640
20430	14.10540	15.61345	12.33524	91.92809	97.93839	67.23796	58.75707	40.44412	22.15349	70.89027	84.14832	53.61326	17.25783	16.37191	14.75001	75.66108	37.81621	26.17524
20600	14.56637	11.68567	8.63492	28.09220	29.75254	23.96453	43.43041	30.51576	19.11926	27.97003	20.59276	18.44882	16.03709	18.67112	19.79706	55.81173	42.06395	31.06996
20760	18.50999	19.55000	16.24620	33.96191	25.95709	24.79783	49.16938	44.32694	29.28603	17.87056	24.93449	18.69714	25.59848	27.60744	22.22858	102.05165	93.30359	70.51902
20920	14.19399	12.05317	13.36253	91.27058	80.06056	76.45585	48.60405	34.01908	24.65220	70.28322	55.70347	52.85283	19.41593	18.44266	15.68356	87.01088	88.54935	42.77770
21090	8.22162	9.04520	7.17544	40.27967	30.94427	34.32103	46.13896	32.07074	22.05798	26.09543	21.35256	25.94318	17.65820	14.22861	16.19668	55.29537	95.04022	85.78371
21250	8.27327	7.25489	7.77505	76.81201	93.11858	94.15095	44.41900	32.85448	19.86256	78.83613	63.96914	100.24799	17.86064	16.19779	12.79358	107.15774	91.57670	82.13194	29.03	6.1	0.00	7.53	0.01271	0.01291	0.01641	0.00784	0.00583	0.00640	0.00469	0.01269	0.01685	0.00679	0.00692	0.00882	0.01491	0.01096	0.01197	0.00220	0.00624	0.00873
21410	9.99215	9.33487	7.67694	68.85374	76.87821	62.34593	47.41839	34.22466	26.31047	14.66074	23.47770	22.22718	19.70486	18.88501	21.57027	71.99266	72.47224	81.28104
21580	16.45457	12.52415	13.34050	52.94464	76.31468	73.22868	51.94724	40.46545	29.83973	88.60434	85.42188	51.75540	19.77314	22.80995	16.96605	83.02841	78.70657	61.44917
21740	12.04045	11.67704	10.96084	25.45289	22.75942	25.57797	45.33232	30.91041	21.71510	17.38995	20.94835	19.29359	18.81701	17.43260	15.16439	66.63989	55.27492	41.99185
21900	11.53029	10.05219	8.38316	35.16646	27.62860	35.18264	46.40607	33.60441	20.48818	25.90641	24.17194	22.31736	15.25835	13.54617	14.17670	59.18607	45.49820	31.86763
22070	12.06452	11.21357	10.45761	34.49021	38.58424	36.00394	46.70697	32.40196	25.32694	30.20258	21.99889	18.37285	18.96235	14.90959	12.78687	64.98720	53.43448	43.58368
22230	7.82828	7.03963	5.53962	46.78427	43.15540	23.78545	42.61816	31.11771	20.42998	19.21941	17.15065	16.89917	14.44662	14.53932	13.84656	52.58319	39.12830	35.79808
22390	8.11876	7.23179	9.09737	41.41080	33.14931	20.84612	46.11856	33.51313	23.60322	23.44810	23.91219	22.77670	20.05858	15.47320	12.53768	61.65412	47.26272	40.73197
22560	9.77995	10.63945	8.40968	48.06778	29.75761	38.84324	46.88946	32.73321	21.31193	39.35096	27.47390	15.47278	18.25922	15.02510	15.54160	81.76800	48.37421	31.81102
22720	10.54929	8.69515	7.72598	40.51024	62.08855	42.42858	48.30689	31.60740	20.34638	41.50256	41.47665	29.07560	17.11636	16.22773	11.90772	49.48495	37.07731	27.38563
22890	7.95218	10.45699	7.90334	28.06164	29.49571	27.67310	46.29449	33.48078	20.91153	22.26987	17.77091	18.34620	19.53742	16.78260	14.31312	60.00093	57.31631	39.58785	29.09	6.3	0.00	7.54	0.01271	0.01291	0.01641	0.00784	0.00583	0.00640	0.00469	0.01268	0.01685	0.00679	0.00692	0.00882	0.01491	0.01096	0.01197	0.00220	0.00624	0.00873
23050	9.96997	9.85439	5.56838	33.02124	28.20944	28.73257	42.28923	28.76209	17.45224	24.76894	24.67267	19.29735	16.14515	12.13025	11.11475	60.24264	47.33896	36.45607
23210	8.79275	7.89443	6.36664	23.46539	26.43209	23.24624	45.76457	31.63065	24.31742	20.14845	19.22370	20.97724	17.57094	15.31136	16.06605	58.62280	45.49262	30.70512
23380	8.80853	8.32473	7.07527	30.05303	29.63853	33.27851	44.76808	32.43140	19.35982	18.68773	34.74235	20.33807	16.66518	13.94698	11.29960	62.59328	61.26643	46.02753
23540	9.10258	11.25503	6.53863	47.09692	53.29665	33.91397	47.52348	33.93409	24.60386	26.96170	26.11996	23.76208	20.70253	17.56936	15.70979	65.13410	52.65153	38.69503
23700	7.47957	10.95383	8.75313	39.36924	27.00031	23.83365	45.00444	33.19934	20.82523	18.87484	19.01327	19.69370	16.67885	15.32990	13.77970	65.43792	44.86716	32.66900
23870	8.52465	7.53938	7.17383	25.52594	22.67841	20.95267	42.94688	29.60918	19.85952	18.78337	15.98016	15.84777	15.83326	13.10235	10.81850	58.72738	42.79826	30.29323
24030	8.54448	8.33250	7.08508	30.36326	30.43246	22.13747	43.04979	29.29015	18.09172	19.21163	20.66011	25.62740	16.92097	14.12958	12.73334	66.81371	44.77623	31.66386
24190	7.95460	8.40457	8.42177	36.46889	42.58284	29.24214	43.58443	34.63919	20.73557	29.58342	36.23475	22.83454	17.77202	17.97411	17.22981	59.33691	45.20271	32.83455
24350	13.40296	13.32865	10.18080	44.35483	40.02442	31.29999	46.19181	32.44872	23.35209	21.81992	20.18328	23.93753	18.54297	13.81457	11.70443	70.35100	61.74875	43.91385
24520	7.03533	6.78355	5.41593	48.98107	30.46266	29.50502	44.03981	31.72465	19.52322	29.20964	29.88977	25.25640	17.39016	16.15489	13.80199	75.16451	51.83934	43.18661	29.09	6.2	0.00	7.63	0.01271	0.01291	0.01641	0.00784	0.00583	0.00640	0.00469	0.01268	0.01685	0.00679	0.00692	0.00882	0.01491	0.01096	0.01197	0.00220	0.00623	0.00873
24680	9.18255	9.01361	8.28912	41.96913	30.47105	25.97028	44.79415	30.98224	21.81422	16.83198	18.71850	19.72565	17.00976	13.76306	13.27353	56.03136	43.34705	41.60168
24850	8.78046	8.51913	5.90500	37.68073	34.12666	30.82542	42.56433	30.95062	17.70246	25.51007	22.47655	22.80742	15.61522	13.42861	11.43430	61.54254	49.71119	42.12304
25010	9.37460	7.25408	8.02198	28.62839	31.30086	23.91227	44.72572	32.64139	20.27686	20.44408	23.14553	34.31761	17.55202	16.01504	13.07929	71.13256	55.73923	38.22920
25170	8.42398	9.70454	7.08380	24.45983	22.01743	20.61966	45.79137	34.76823	24.35171	17.81400	18.17697	21.64134	19.44585	15.91811	15.12835	57.58124	46.79690	35.11809
25340	10.10628	8.22680	7.17735	33.42601	27.60899	25.63038	45.83833	30.82495	19.62718	20.13118	21.05426	17.16799	17.67114	16.15784	12.44035	57.73481	43.43277	34.78602
25500	7.98324	7.39258	6.36737	30.19157	23.78894	22.87154	42.64056	30.43188	19.10762	23.64791	20.77494	24.90202	14.82428	12.36342	10.34254	70.09715	51.40180	41.48691
25660	6.15230	6.58500	5.61266	37.24375	30.82520	26.02206	42.30437	31.28276	19.14657	21.35163	20.35614	25.15299	17.92684	16.02888	15.87953	71.83873	66.69491	41.08280
25830	11.69658	10.31606	10.92590	45.00531	52.24994	50.96047	44.70169	32.50036	22.34385	33.26387	22.96288	20.34472	18.41988	14.79955	13.11121	58.98883	52.44688	41.15468
25990	9.74866	10.01674	7.90066	31.45446	33.11381	28.55417	43.16018	28.99434	17.03282	16.67257	17.66548	24.87822	16.54070	14.54646	13.52786	50.57385	45.08839	27.68019
26150	7.83669	6.58919	5.97570	31.75491	40.67420	27.84425	42.21293	30.80088	19.03054	21.85401	24.97867	23.58119	16.53934	14.40073	11.97900	70.91623	51.26962	38.06030	29.03	6.0	0.00	7.52	0.01271	0.01291	0.01641	0.00784	0.00583	0.00640	0.00468	0.01268	0.01685	0.00679	0.00692	0.00882	0.01491	0.01096	0.01197	0.00220	0.00623	0.00873
26320	7.69676	8.70980	7.51640	32.47323	24.81803	26.62567	44.71404	31.38254	23.09921	23.42983	23.75634	31.59424	19.71523	16.08382	16.54709	76.40189	49.92375	47.96383
26480	11.76249	8.56572	8.28990	46.48005	36.08652	28.46109	46.41615	33.74452	21.65087	21.69634	20.13841	18.81586	16.67018	13.64264	11.27867	61.02495	48.07721	33.12494
26640	6.68461	6.42521	8.40730	32.64681	28.31907	30.59523	43.91331	30.50708	21.67726	27.44755	21.09166	15.97300	17.67865	14.31780	13.39333	56.99788	46.20348	35.31265
26810	8.03395	10.63222	7.30529	26.34499	23.84643	20.06569	44.13589	33.69338	19.62194	14.24248	13.35343	13.11670	20.58159	18.63645	15.70515	57.19878	41.70834	29.81975
26970	10.31355	9.38712	12.04863	24.29834	21.48642	29.92653	45.89989	32.32826	21.70485	28.40236	20.76006	27.34445	17.37012	15.34317	12.53657	75.03777	42.41827	34.97267
27130	7.91566	6.77363	4.89172	44.22286	38.47650	45.76262	43.39954	28.57696	17.89026	41.26467	33.17107	30.63231	15.56116	12.78334	10.44248	64.89130	51.13833	44.59201
27300	10.25295	6.52875	5.39534	39.11115	27.41180	21.29788	43.75002	30.58485	19.64956	21.18750	22.06994	16.44556	15.66173	16.09018	13.50336	59.56643	51.82185	36.97519
27460	9.64255	11.17622	10.32884	41.43284	27.95023	26.88618	47.77559	33.45693	23.13330	18.30445	19.54239	20.24091	19.57255	14.80262	13.69084	59.60938	43.14877	40.71411
27620	9.57049	9.00067	7.26845	43.15593	31.88582	22.53199	43.37497	34.23389	17.87010	28.53225	32.08397	28.10700	17.97180	18.75825	15.85094	58.03309	45.31120	33.51918
27790	9.38748	8.79454	9.45470	30.52362	25.57547	37.69010	43.11378	30.33736	17.99441	25.11842	18.01253	15.21985	18.34593	15.07863	12.63406	61.81493	53.46510	34.61072	29.09	6.0	0.00	7.55	0.01271	0.01291	0.01641	0.00784	0.00583	0.00640	0.00468	0.01268	0.01685	0.00679	0.00692	0.00882	0.01491	0.01096	0.01197	0.00220	0.00623	0.00873
27950	7.84997	9.37918	6.75016	30.56932	32.15209	20.96430	43.30860	33.40660	21.40414	18.12751	15.06392	14.64718	16.47742	18.31564	16.47355	58.58657	43.86298	29.94989
28110	11.99938	9.73949	9.68169	26.73819	23.80054	22.54251	48.00585	33.05384	18.62741	22.02817	17.90550	17.91074	15.75821	12.89645	12.72090	60.79537	46.01699	35.07141
28280	6.85397	5.57886	4.18931	43.11041	39.79067	37.18823	47.83467	31.33074	19.36443	32.33131	23.03067	20.74503	17.74407	14.73413	13.56054	60.19958	44.52815	53.33244
28440	11.09328	9.90821	10.26108	35.03816	27.73363	21.29592	47.02267	31.75153	21.48797	19.35276	14.98804	33.52882	18.38268	17.37113	15.12090	65.33832	49.78433	54.71695
28600	12.89589	13.01082	8.91694	39.35676	35.74787	38.80477	44.23267	32.62528	19.71407	49.71694	37.18397	39.76018	20.16433	16.20341	14.23982	66.24320	52.09780	49.34698
28770	10.99603	8.93422	8.28929	31.85738	23.53186	39.01540	44.03977	31.13048	19.75864	20.22954	13.35595	14.71436	15.55690	12.72046	11.25692	56.87626	41.73976	34.53940
28930	6.71348	5.32528	6.18738	36.30603	39.15097	29.97263	44.12441	32.01941	21.81920	28.63100	11.62664	13.87028	18.79730	15.79527	14.29185	66.93511	46.11225	29.18317
29090	10.28318	11.92710	9.77533	27.92747	29.21145	26.34622	46.72919	33.84580	20.47675	24.92769	19.67239	11.40325	16.81736	16.28332	15.34879	48.91851	35.88457	24.03583
29260	11.71739	10.02983	9.69967	22.28383	19.69177	17.62608	45.89488	30.43010	20.42080	13.49828	13.18265	13.35107	15.60128	13.19440	11.37541	56.40709	49.34769	30.67955
29420	7.52716	7.23264	7.49940	29.73859	33.48570	21.87338	45.36298	32.74376	19.76044	17.43300	28.58829	16.75736	16.48968	17.10156	14.38469	51.50573	40.08270	27.86230	29.03	6.0	0.00	7.88	0.01270	0.01291	0.01641	0.00784	0.00583	0.00640	0.00468	0.01268	0.01685	0.00679	0.00692	0.00882	0.01491	0.01096	0.01197	0.00220	0.00623	0.00873
29580	9.89684	8.12363	6.42372	25.73557	29.98386	32.43310	42.17825	29.33226	20.48933	25.66132	20.31005	17.91257	18.04605	17.08353	14.87351	62.11020	50.28633	43.22177
29750	10.30950	12.10279	10.90363	40.17785	34.54742	25.52545	49.18934	38.74750	23.44649	23.09808	26.06183	23.20123	19.35930	15.66077	16.34017	68.55640	52.13825	40.19951
29910	10.06750	8.82176	7.08118	33.69023	26.05871	33.36290	42.89364	29.90339	19.84809	19.66452	12.45983	11.16084	17.79707	14.65873	11.15662	50.92954	38.07008	23.88028
30070	8.71758	10.58186	6.48423	20.80614	20.79759	28.66729	45.06803	32.30738	19.69635	17.87661	19.14232	37.01405	16.19980	12.91478	10.89268	69.20881	73.86311	67.05992
30240	8.25543	6.90732	5.64170	37.19912	35.92420	30.55564	41.82685	28.48606	18.67468	24.86283	25.77103	23.48972	17.23799	19.50568	13.17086	80.89289	60.91186	44.45764
30400	9.96558	9.11980	7.23622	48.72857	31.51405	34.09455	43.53157	31.47886	22.44327	25.21913	18.67320	34.87861	18.37433	17.83831	16.65918	77.04108	51.94634	34.19948
30560	10.24948	8.13610	7.43009	27.52500	28.85186	28.73111	43.42532	34.21113	20.39751	38.02635	25.40451	29.85842	20.75691	17.89839	14.26876	53.37241	39.16434	25.37194
30720	9.38464	12.13866	10.88452	28.38403	19.18055	17.88183	46.55605	34.33695	22.10922	16.00988	14.80676	16.71377	21.20452	16.31642	13.13908	51.88927	37.58711	25.40978
30890	6.54286	7.01322	6.37511	25.97674	24.24063	19.64880	42.76915	30.76568	17.81978	13.35920	17.84904	23.97495	15.92962	15.97799	12.60364	95.63691	58.51811	58.53502
31050	8.98894	9.04535	9.25810	37.01341	29.02780	28.32378	43.27587	30.65449	20.04915	23.64825	23.59943	26.07861	16.38993	17.33256	14.98997	65.21380	51.01923	30.67878	29.09	6.2	0.00	7.55	0.01271	0.01291	0.01641	0.00784	0.00583	0.00640	0.00469	0.01268	0.01685	0.00679	0.00692	0.00882	0.01491	0.01096	0.01197	0.00220	0.00623	0.00873
31210	10.40125	8.79635	7.73372	25.68487	24.86350	27.52017	46.34420	36.08288	22.71465	21.40846	17.11845	19.11906	18.86144	17.44909	14.22465	60.23196	42.51792	27.52129
31380	10.39879	7.82485	9.76075	28.83183	29.72954	30.47115	43.88754	34.03291	21.75070	18.54260	22.93977	23.12693	15.42549	13.02412	12.70392	62.16262	43.49507	30.82652
31540	8.30902	7.71294	8.06692	36.34503	59.92951	33.27899	46.37017	34.37711	19.83073	34.86793	34.43850	29.16034	19.63644	17.06016	14.41442	68.20856	55.92117	42.76886
31710	10.33758	10.24552	9.45899	52.94896	46.16148	33.02597	44.52924	30.97314	20.64409	50.74834	61.81641	48.06552	16.48058	15.63894	13.80674	65.54588	77.53097	46.33745
31870	8.52564	8.48038	6.49993	41.75556	38.78794	26.74086	40.84519	28.09472	18.65397	22.65889	23.04051	23.02916	17.10156	13.65433	12.10456	58.58847	50.84539	60.62499
32030	10.46877	9.59046	9.35048	38.96999	32.87494	31.15207	44.81651	31.02866	20.89866	21.34349	28.81100	23.10998	16.01815	14.79270	12.35211	63.76605	52.97816	43.29973
32200	8.79607	9.38837	9.33651	23.23941	22.05007	19.44482	43.76109	31.52036	19.45013	16.15947	17.91399	16.58137	16.01658	14.73208	12.35495	52.91857	37.34074	26.65857
32360	7.05203	8.02666	7.51596	29.38944	28.01549	25.58984	44.70381	34.45304	22.10703	20.38079	14.01509	23.40472	18.65734	19.53473	16.14551	64.72350	72.57962	53.87516
32530	10.40502	12.00404	10.57918	36.42057	56.84074	53.27123	42.88293	31.80479	20.88700	37.64619	41.60393	56.38209	17.43668	14.40764	14.37672	80.53484	67.93448	59.54767
32690	9.80870	7.17362	8.14026	52.24751	34.11345	48.50030	43.36596	32.48267	20.20570	28.84402	38.43568	49.78140	15.66899	14.48436	13.16159	61.09872	65.72074	39.32304	29.09	6.1	0.00	7.61	0.01271	0.01291	0.01641	0.00784	0.00583	0.00640	0.00468	0.01268	0.01685	0.00679	0.00692	0.00882	0.01491	0.01096	0.01197	0.00220	0.00623	0.00873
32850	10.23253	11.34098	7.21721	38.03359	38.43972	41.34553	44.95486	34.70297	19.47451	33.67440	23.16175	52.62522	21.38198	17.07207	15.37827	62.47220	50.93650	47.24792
33020	9.24016	8.05469	6.57240	38.68897	33.38261	26.31999	44.07893	30.46124	19.74051	21.67502	33.23814	28.35995	21.13822	17.90014	13.91130	67.13788	44.75659	41.84607
33180	9.40064	10.96138	7.61025	37.86698	30.02757	32.69008	45.28029	32.72433	19.52941	41.19370	31.82210	42.34239	16.44203	12.41616	10.35366	74.44207	81.30449	57.93694
33340	7.61662	7.77416	4.25813	32.56888	20.09786	16.60951	44.99805	32.02441	22.28270	15.36849	15.02178	14.70157	18.44266	17.09712	13.10246	56.65186	39.77794	26.46960
33510	12.97273	11.80753	14.46040	24.51222	38.91832	28.18989	52.76540	36.95090	24.54802	16.08704	21.99727	46.19216	21.71086	16.89622	16.65715	68.93674	56.95534	42.91961
33670	9.96329	11.08322	7.95585	36.51212	36.82798	34.28317	45.47081	33.04194	20.23130	29.65405	22.48320	19.65413	17.27539	16.96404	14.99281	49.37906	34.70807	23.27062
33840	10.64355	12.85824	8.68440	37.34295	35.23641	30.74217	44.84666	32.24965	20.31933	21.05594	17.87715	18.05354	16.03418	13.03027	11.69823	65.15337	55.07427	39.45497
34000	8.69460	10.69784	9.48655	51.30026	41.36611	31.39924	45.38902	33.83904	21.06443	37.47806	55.63332	30.78704	16.16365	16.89406	11.84961	71.08639	78.94290	48.64373
34160	9.69486	9.45556	7.92288	40.04547	30.57198	34.21690	43.89263	30.23941	17.85564	20.76817	19.35678	23.17755	15.71932	12.69430	10.43187	65.50964	49.21050	31.67135
34330	5.80167	5.51100	5.19510	32.83748	24.46425	29.85617	41.09846	31.16018	20.48079	20.01388	16.82777	13.64103	16.90994	16.35387	12.27637	51.07036	49.20983	31.77242	29.09	6.0	0.00	7.52	0.01271	0.01291	0.01641	0.00784	0.00583	0.00640	0.00468	0.01268	0.01685	0.00679	0.00692	0.00882	0.01491	0.01096	0.01198	0.00220	0.00623	0.00873
34490	8.18420	8.30834	6.56765	35.20436	29.15650	27.60781	43.49487	30.38360	18.59608	23.91417	30.87932	29.76556	16.59906	14.38388	15.34539	56.47431	48.84792	41.20104
34650	12.12991	9.00255	8.83503	39.61174	49.82417	44.64601	44.07720	32.75404	22.63664	60.09469	29.30982	48.07229	16.08040	16.21393	12.04391	105.61136	55.41535	23.12672
34820	11.12102	9.91657	9.97215	20.16860	18.65279	20.78513	45.88539	33.10216	20.32615	13.04443	13.51132	13.32058	16.85454	12.26902	9.95050	54.75305	44.07375	37.01257
34980	6.12874	6.00974	5.28634	32.45115	25.06317	20.03108	43.59109	33.38155	20.95167	18.46563	16.08146	12.64000	17.37301	15.35344	11.98682	49.91157	36.19906	26.64566
35140	6.88955	7.92219	7.62836	33.21988	25.26772	33.73549	45.95546	35.53990	26.86096	32.79953	22.30665	15.68055	18.94325	13.43969	13.31096	55.91322	40.69186	33.88157
35310	10.07141	13.87900	12.99692	34.96734	48.67761	34.32946	47.01940	35.37939	21.74398	22.89849	15.90904	16.26384	16.35958	16.99131	13.28624	65.43466	42.03621	26.77769
35470	8.19416	8.20089	6.02182	24.71486	25.68654	29.51173	42.43577	29.60240	18.66665	23.66750	15.72306	17.92135	13.62436	10.82750	9.30023	54.20308	41.16559	26.36402
35630	5.24066	4.73289	3.51060	22.05888	19.83010	18.93591	41.66102	27.69336	16.03539	19.72495	16.64723	13.98108	15.16624	11.97536	14.66738	55.43856	58.56592	57.07655
35800	10.59361	9.75534	8.32218	38.81535	33.67607	36.19328	43.27909	32.72019	19.35537	26.48106	23.92812	27.08506	16.85043	13.28435	12.90501	57.60634	48.46749	33.24395
35960	7.33648	7.54963	5.63374	28.46088	27.53357	45.78471	42.59396	28.93263	17.63769	40.52577	39.73418	65.04445	15.29648	13.36306	10.94141	84.63778	62.13664	61.94417	29.09	6.0	0.00	7.52	0.01270	0.01290	0.01640	0.00784	0.00583	0.00640	0.00469	0.01268	0.01685	0.00679	0.00692	0.00882	0.01491	0.01095	0.01197	0.00220	0.00623	0.00873
36120	6.82094	6.42073	5.56791	62.60459	50.12941	41.07928	42.95866	31.53622	21.69996	21.87263	30.36310	22.82402	17.01934	13.23711	13.18258	50.57913	34.19317	23.10280
36290	8.52314	6.41768	5.96134	26.61469	58.83070	47.27269	46.13228	31.86091	21.65436	36.00093	21.99667	31.67102	20.17317	19.37395	16.49304	80.64178	52.65890	45.24931
36450	12.81664	9.58443	12.36790	23.60888	27.36934	38.03049	46.93213	31.58016	22.80157	28.11179	21.70947	19.77057	22.49011	15.58459	14.61845	49.38450	36.58745	23.80613
36610	7.43580	6.87804	5.36999	23.23585	23.47718	19.03473	49.20491	33.27905	19.15101	14.75497	14.94446	12.85620	17.47214	13.24510	10.83323	78.06349	61.58685	52.57707
36770	6.24666	6.04918	5.30493	28.47928	29.36826	24.85471	43.14869	31.38275	19.10347	23.56675	28.47686	19.31363	14.25800	13.28406	10.36455	58.93445	46.80263	37.00663
36940	8.69409	9.07706	8.05395	33.31026	23.82453	20.30173	44.93497	34.54047	19.76902	12.71727	11.31289	12.22090	17.62528	14.93537	12.83828	55.92098	37.52370	28.02911
37100	9.10449	7.71625	7.20039	28.39338	20.92377	22.01118	43.96197	31.97622	19.66309	21.25164	21.33305	20.90848	15.73780	14.47701	12.95936	53.96949	48.20170	34.72162
37260	9.08034	10.96944	7.90366	31.73611	24.11613	23.63247	43.72511	31.98992	17.89004	24.71979	16.37236	15.40627	14.21686	12.84979	10.39122	64.52390	37.35686	25.36250
37430	8.08521	8.63823	8.23180	23.40860	23.13088	20.25838	42.76228	28.75390	17.31169	16.23424	17.70333	15.45237	13.89990	11.57909	10.30199	55.37038	40.35314	23.71713
37590	6.24192	6.53613	4.54278	19.91281	18.30323	18.20211	42.96009	31.38666	21.61663	24.48944	16.19583	12.49930	19.95691	17.49280	14.08643	74.19070	38.39040	27.71970	29.09	6.3	0.00	7.50	0.01270	0.01290	0.01640	0.00784	0.00583	0.00640	0.00469	0.01268	0.01685	0.00679	0.00692	0.00882	0.01491	0.01095	0.01197	0.00220	0.00623	0.00873
37750	7.98751	8.04739	7.46566	27.82287	24.25115	23.14615	45.96946	30.89661	20.25043	27.86504	31.18793	24.58860	15.48196	14.03753	10.39373	66.92536	59.13593	44.69365
37920	5.46669	5.07601	7.34780	21.22402	28.14757	42.66924	47.53750	32.99116	22.22584	23.99753	15.04848	21.24070	19.54095	14.42486	14.33081	63.68939	44.79461	27.68567
38080	9.19784	7.41652	10.91837	28.19783	30.54107	26.24360	47.70089	33.07549	20.90980	15.09208	15.27816	15.05873	15.78572	13.97513	11.25048	63.73268	53.58473	33.25267
38240	6.64388	6.85827	4.80582	33.50622	27.95368	32.57874	41.31609	27.71508	16.02864	17.01434	10.84542	11.16111	13.13946	10.88556	9.35285	63.92984	46.02231	29.98421
38410	5.20105	4.81654	4.22727	24.43397	21.29233	22.39264	47.26236	36.91587	21.37410	16.96010	15.83883	14.36682	16.53547	17.16860	14.69603	50.47904	36.62352	23.62108
38570	10.88805	13.15760	10.88781	21.51781	26.52310	36.86915	45.85654	36.61326	24.84565	13.82987	14.03876	17.56851	19.79817	14.90281	14.17232	70.30203	63.47528	49.00142
38730	10.80357	9.93607	6.58463	41.37086	47.75972	32.85444	46.50597	34.44703	23.38221	31.86478	30.34057	23.75084	18.32899	15.58525	13.83724	67.29014	42.50980	38.25452
38900	6.94308	6.94746	5.41859	29.81229	33.19357	38.49737	42.98365	32.30165	21.94378	21.20832	13.43702	11.97456	17.92816	17.06329	13.51995	52.17739	38.16703	26.49695
39060	8.38112	9.32410	6.96921	23.25525	17.94270	16.39314	46.94939	31.71426	19.97176	19.08263	24.22322	17.03853	16.22728	17.86868	15.65680	55.82054	45.81174	46.65564
39220	13.35525	13.23685	13.52936	55.98051	47.08600	39.36002	47.81820	33.45696	24.79103	35.49467	20.47819	29.26524	22.24669	20.87313	19.23333	68.33533	50.22628	40.05063	29.09	6.1	0.00	7.51	0.01270	0.01290	0.01640	0.00784	0.00583	0.00640	0.00469	0.01268	0.01685	0.00679	0.00692	0.00882	0.01491	0.01095	0.01197	0.00220	0.00623	0.00873
39390	12.04750	13.19237	12.53853	30.59063	29.20752	22.43232	43.84952	30.98859	18.98292	29.28955	37.79040	23.25549	17.76576	11.32019	9.21415	80.88015	79.80627	65.98811
39550	5.05448	4.47080	3.91238	48.54198	39.80346	36.74687	40.69727	36.16806	21.24591	28.30178	23.97114	37.88161	24.24411	17.31821	17.33844	61.30129	57.01241	32.52902
39710	10.64009	11.23817	9.11036	33.47251	29.06847	35.59132	42.60395	30.48907	19.60020	27.51001	15.20076	20.54687	23.08862	14.01745	11.50047	68.68501	50.14463	52.12026
39880	9.80828	8.35170	6.99295	24.31016	24.80236	22.16445	43.37064	32.07071	21.87492	19.19162	10.95271	12.61832	18.43593	15.09262	12.80318	51.02577	37.73580	29.56308
40040	9.05968	9.42473	7.55899	25.00218	28.42902	38.30059	42.89692	29.30097	17.45083	28.61211	25.94332	40.12354	17.58448	14.72257	12.85980	80.88015	56.39689	60.07248
40200	7.13166	6.97213	7.19514	34.07309	28.85249	25.61297	45.45862	33.41582	24.29779	30.16792	27.87493	27.27024	24.42773	18.86335	15.83988	52.23408	39.89209	26.81836
40370	9.88588	14.77431	10.97667	30.07677	20.74649	46.33701	48.27091	33.93281	24.99362	41.94716	41.68440	31.58542	20.89037	15.82426	12.57245	73.08359	59.06368	40.32201
40530	10.57013	10.64691	8.57443	64.69102	52.94149	35.59975	43.53307	34.95809	23.43592	27.23041	35.83874	15.84251	19.82969	17.66212	15.14588	53.35968	45.42646	46.93376
40690	11.14521	10.57192	8.97822	29.64324	22.62040	31.04166	44.00132	30.01159	18.65924	33.14870	24.04769	15.85200	15.37460	12.13549	12.62267	62.51106	48.01008	41.07648
40860	9.50926	7.21927	6.36699	23.20588	19.71412	28.22703	42.15457	31.28918	19.77124	21.53513	12.06458	16.28751	16.08692	14.86556	12.45177	59.54104	45.93391	30.58944	29.15	6.2	0.00	7.53	0.01270	0.01290	0.01640	0.00784	0.00583	0.00640	0.00469	0.01268	0.01685	0.00678	0.00692	0.00882	0.01491	0.01096	0.01197	0.00220	0.00623	0.00873
41020	10.82939	8.01165	7.98743	31.20336	26.65447	34.11522	44.75962	30.46765	18.78471	13.24282	13.18543	21.90827	18.46807	17.16175	15.10526	47.86150	37.49913	32.33912
41180	9.55785	11.38727	8.60316	34.65032	43.58611	45.36971	44.27843	33.81003	25.62639	33.13983	37.32559	29.96015	20.49425	18.96631	16.50839	59.68472	50.86873	40.27348
41350	14.78581	10.32421	12.89691	38.30918	47.43266	32.71086	49.25650	33.42408	23.44907	23.09685	20.08498	12.76094	17.70679	16.06428	12.68091	55.13597	40.67130	30.80124
41510	9.33477	8.65964	7.05004	39.64743	22.88612	22.18837	44.07533	31.86827	22.14151	33.91796	24.71459	31.26420	17.40545	14.04074	12.70683	65.63813	55.31717	39.18271
41680	6.84634	5.89475	4.64431	29.52337	23.87390	26.57672	42.56447	29.25118	18.82354	22.78168	30.17513	21.23668	15.92437	14.42005	13.67651	67.44561	60.62995	50.50234
41840	10.32231	8.42595	5.87522	60.06463	38.96034	32.88792	42.88122	31.05083	18.91444	19.03858	28.90679	24.23925	16.62407	12.57856	10.62374	58.00973	42.59973	37.22069
42000	8.78087	7.04694	6.26525	29.11398	26.32420	20.14705	47.08709	33.59048	21.16762	27.09728	16.77427	14.65788	21.33161	19.56753	16.24120	56.96470	43.58347	32.93457
42170	12.19366	12.43322	11.95129	33.59469	32.19202	33.01791	48.10745	33.46813	22.47023	15.07037	20.63464	16.21948	17.72062	14.21002	12.95506	49.83671	39.20202	27.83915
42330	8.13306	7.17630	6.79465	34.36526	26.70675	21.13717	42.30769	29.33872	19.17105	16.44708	14.39328	12.72226	14.19357	13.15466	11.69173	58.30789	37.61847	28.56961
42490	7.96652	7.25484	5.64370	29.51489	25.30886	25.70947	45.20726	32.73692	25.61495	28.34427	20.16323	22.01030	21.10539	17.44614	14.90945	58.76896	51.32640	43.51799	29.15	5.9	0.00	7.47	0.01270	0.01290	0.01641	0.00784	0.00583	0.00640	0.00469	0.01268	0.01685	0.00678	0.00692	0.00882	0.01491	0.01095	0.01198	0.00220	0.00623	0.00873
42660	8.47453	8.67822	7.26291	37.73443	29.00156	22.01904	43.92203	29.90806	17.85986	22.85117	30.21789	34.40121	15.80169	14.61874	18.82701	68.78638	47.60634	46.55999
42820	8.31563	7.83541	8.63705	25.01814	21.78458	20.47950	45.06316	31.23134	24.08262	20.30841	22.99147	20.05777	16.74252	15.46605	15.18241	83.63125	50.58735	33.23386
42980	9.00808	10.68188	8.26503	42.99513	30.62423	39.26912	44.17492	31.57492	21.36919	28.19883	23.17341	24.85075	16.56242	15.00831	14.41134	56.85152	45.07218	28.70326
43140	9.64176	7.40206	8.85848	31.37619	32.89995	35.96522	45.63048	34.25206	18.68146	23.97388	21.43187	14.72534	15.45714	14.50040	11.98155	53.49303	43.67309	28.97763
43310	7.60880	10.85056	8.65055	22.91155	19.99872	17.89546	42.86454	30.14441	19.28312	21.52036	24.49506	25.54972	19.04323	15.08402	13.62694	63.28315	46.41133	31.10273
43470	9.10983	8.57009	5.66207	30.63065	25.77698	23.76698	44.69075	34.27572	20.14109	19.23971	14.75044	20.20619	18.20533	17.01151	16.21030	55.55445	47.89281	28.41403
43640	8.64632	8.16784	7.02874	32.71919	28.11188	21.59061	44.40327	30.89423	19.26370	18.65385	18.91521	19.41599	18.36429	14.95890	13.18118	62.33382	48.61215	46.68273
43800	8.85968	10.23564	6.18972	30.46251	23.79585	23.71459	44.63497	31.94700	18.37989	23.62872	18.24667	19.28118	15.65682	14.92736	12.55177	55.77722	59.15318	30.87278
43960	9.47402	7.85245	7.24733	28.56490	41.62628	31.92252	50.57981	32.24208	21.90027	18.36393	18.24675	25.66681	20.78145	20.72611	18.19814	61.46685	50.18083	37.22646
44130	11.14873	11.99913	7.63374	30.06970	25.37253	26.75995	43.26101	33.58909	24.31721	32.78441	27.23863	33.49174	21.60961	16.95586	15.60376	53.47881	42.67840	31.52178	29.15	6.0	0.00	6.68	0.01270	0.01290	0.01641	0.00784	0.00583	0.00640	0.00469	0.01268	0.01685	0.00678	0.00692	0.00882	0.01491	0.01096	0.01198	0.00220	0.00623	0.00873
44290	10.49687	9.89318	11.34635	40.18546	38.63080	34.56801	46.01331	32.13037	21.72095	32.61855	37.18802	33.35235	16.14297	15.23798	13.67282	65.09943	45.30985	33.64110
44450	8.77030	7.53470	7.02890	38.17985	29.88197	31.75563	42.90371	30.03824	18.21024	21.94337	23.02648	15.24733	18.77931	14.20089	15.94230	64.92680	43.66331	31.21933
44620	10.14692	10.24743	8.38612	36.28574	36.44744	32.26168	45.00933	33.08457	19.89781	17.56011	16.58856	22.58170	17.41195	13.96710	12.66212	68.05951	46.22969	32.15515
44780	9.26921	8.79755	7.54609	24.16800	24.48031	21.15090	45.11302	31.49901	21.54848	15.34430	14.58173	13.21229	15.21560	13.10432	10.70795	54.08846	43.06385	34.25823
44940	7.55080	7.50511	6.30883	29.57555	21.86090	22.11554	44.36420	29.92562	17.62979	17.56531	15.77902	13.38945	14.77253	12.61133	11.78399	50.70957	38.52815	39.38598
45100	8.46791	7.49283	8.28912	33.44350	30.20367	23.87591	48.26244	31.00456	20.31185	29.24820	17.07064	20.06966	16.31098	18.67532	13.71957	60.34049	45.74422	35.21084
45270	10.52195	10.61932	10.18207	31.48898	28.81903	28.72437	46.11418	31.35502	22.06358	15.55398	15.34974	17.07600	17.84073	13.93509	12.88163	57.19678	40.03769	33.31738
45430	7.68997	10.16488	5.76210	28.40496	30.56173	24.22750	42.93719	29.84678	18.29997	20.28281	15.83095	13.86651	15.69888	14.29833	14.05289	78.05915	52.24012	30.22014
45590	10.12317	8.30896	6.98471	45.53725	29.60488	27.73854	43.27141	29.49438	23.96169	23.25501	27.32273	21.10406	16.99535	14.90372	14.35505	73.13438	51.85830	33.20937
45760	7.97412	8.07941	6.70954	22.08963	20.31599	20.02536	46.00484	31.98221	21.07714	22.11989	22.44710	33.97143	21.66549	15.25289	14.40469	55.70672	52.89937	32.09753	29.15	6.3	0.00	7.61	0.01271	0.01291	0.01641	0.00784	0.00583	0.00640	0.00469	0.01268	0.01685	0.00678	0.00692	0.00882	0.01491	0.01095	0.01197	0.00220	0.00623	0.00873
45920	13.88575	9.24857	10.68423	22.27424	20.46006	26.67967	47.43006	32.91334	21.95238	26.31966	23.49886	30.45589	16.20382	12.91066	11.06842	58.99392	46.83175	37.60016
46090	6.10092	5.96804	6.50172	34.42977	27.91433	25.10958	44.47995	31.55063	19.61132	22.93324	22.23151	15.39560	17.02650	13.96859	14.31169	52.42713	39.44773	43.84224
46250	7.86145	7.68965	5.63169	34.24534	29.16290	29.49748	42.60859	29.53586	18.30043	26.82274	16.44438	15.42901	14.83941	12.31000	10.39718	56.80582	41.36331	30.59445
46410	10.06172	8.23530	6.54954	32.61408	29.04500	28.76569	46.23298	34.43492	25.87563	21.79265	26.60762	20.59179	19.01686	15.59293	14.44261	68.19067	57.34806	40.36333
46580	9.47715	7.45539	5.33187	34.42699	41.27228	32.97215	45.20178	30.90737	17.36163	18.16594	25.22618	25.23556	13.76120	13.04957	11.21574	57.54941	45.68874	42.89258
46740	9.74457	7.19961	5.55472	33.86590	24.07495	20.78144	44.39618	29.33937	21.37341	20.05977	25.31797	24.81200	18.44788	14.41332	13.40056	70.08874	38.92483	30.85838
46900	11.28434	12.03015	9.22896	34.95376	34.77024	37.17256	45.14099	31.53479	18.56387	40.07614	24.27341	23.93004	16.26539	13.90759	12.47843	78.42603	48.01706	25.41926
47070	9.43167	10.71605	9.81358	32.47402	35.50186	35.66572	44.19644	32.82208	20.10270	24.91942	29.75722	19.55381	17.44818	15.09904	12.26111	51.77605	37.82323	28.74149
47230	8.56841	9.01308	6.75407	26.00000	25.93689	24.88405	48.88394	32.21142	22.55532	26.94551	26.87718	22.43159	17.20264	14.08478	15.80344	65.12081	42.91757	37.78185
47390	10.41394	8.28145	8.63466	47.50892	44.16420	45.45931	43.36004	30.27314	18.83705	29.54479	26.27913	36.44666	15.48511	12.45136	10.73127	71.63437	57.39926	43.42827	29.15	6.0	0.00	7.49	0.01270	0.01290	0.01641	0.00784	0.00582	0.00640	0.00469	0.01268	0.01685	0.00678	0.00692	0.00882	0.01491	0.01095	0.01198	0.00220	0.00623	0.00873
47560	6.65939	6.03759	5.05673	56.48657	39.12863	46.62754	43.66186	31.24603	21.39670	42.85865	28.39526	32.62840	15.36830	12.61675	11.28984	59.73437	51.24740	29.94648
47720	7.94023	7.75768	7.14180	31.94193	23.66213	25.22315	45.09342	33.99741	20.03458	20.20887	16.91502	17.93987	20.93939	18.66777	15.96029	52.92003	36.50187	24.82775
47880	14.07048	12.06315	11.44172	39.20283	35.41685	26.74563	45.92579	32.80036	20.43158	35.50626	31.36456	27.17553	15.13923	13.36692	10.29441	64.84748	51.31248	32.35062
48050	9.21671	9.47557	7.31886	54.51616	22.28830	22.40548	42.44645	29.49545	17.88550	29.86904	25.65978	23.86327	16.00974	12.80723	13.19895	66.22449	45.42736	35.02988
48210	8.23276	6.94921	8.91320	52.73876	34.37436	29.55194	45.13302	33.31567	22.44445	19.71712	18.17610	22.40186	20.12332	16.84876	13.92265	64.39663	43.94974	26.28191
48370	12.73823	12.01682	9.56424	21.80932	21.82926	18.41510	45.55526	33.31567	22.14031	19.27266	23.43405	17.20519	22.12224	15.47183	14.92243	68.25598	50.12957	42.68974
48540	8.20759	8.51799	6.96192	32.48697	30.33323	27.08589	44.23302	30.76038	18.31335	13.74544	14.34195	17.07922	16.00580	14.37418	11.54303	54.18197	37.39149	25.89266
48700	9.41772	7.51761	6.43834	26.09159	24.97573	23.28354	43.16435	31.02287	20.13473	22.90846	26.67665	23.12209	18.49117	15.48387	14.97288	69.26041	52.24710	46.29846
48860	11.56764	9.42211	8.60514	28.40875	26.92769	31.33518	46.05776	34.71503	22.78836	34.47828	34.26337	33.10725	18.66695	17.74313	13.92358	90.71784	52.73930	42.02824
49030	11.02309	7.57259	6.15273	30.28186	35.79872	27.17577	42.53960	29.72194	18.26182	31.91225	13.51356	14.45880	18.14962	13.79504	12.74253	65.49825	48.03677	43.00922	29.20	6.1	0.00	7.61	0.01270	0.01290	0.01641	0.00784	0.00583	0.00640	0.00469	0.01268	0.01685	0.00678	0.00692	0.00882	0.01491	0.01096	0.01197	0.00220	0.00623	0.00872
49190	8.83806	8.91861	7.07481	41.14295	38.08046	39.64846	44.10854	32.75142	19.56979	31.24112	17.96020	23.26635	17.89410	15.62948	14.86449	62.44171	46.55279	38.93835
49360	11.23033	9.27098	8.94284	31.10858	23.54129	20.77176	44.36249	33.13485	20.65000	30.10797	25.29545	19.92961	17.90136	15.47011	13.63419	76.93478	48.81605	43.29763
49520	7.09763	6.53570	4.66092	43.74641	36.81668	53.68926	44.06339	33.31710	18.17054	30.34521	28.37745	30.93838	19.26165	16.82868	16.41541	70.63245	44.57550	32.10127
49680	12.38569	9.18046	11.03869	25.04664	23.87904	24.41296	47.08896	35.62290	20.13069	30.72485	15.45888	21.59209	16.75416	16.42334	12.65057	53.19518	50.60271	38.80737
49850	10.13968	10.51751	8.95607	32.31276	27.41901	26.38656	42.73324	29.61897	18.29398	28.58119	14.99162	13.44376	15.70731	12.90506	13.91723	61.32343	44.87736	29.74963
50010	11.76455	9.35137	9.05595	23.16112	23.20469	26.21708	45.74127	31.88072	19.08599	25.02977	25.26306	24.44069	16.04874	15.66970	13.16274	79.62368	43.74755	31.36337
50170	10.00746	7.49966	5.76430	35.69923	28.55626	27.65541	44.68878	32.20765	20.93866	34.08168	22.22042	32.00480	16.52082	12.86698	11.36270	62.93056	41.47676	32.76009
50340	11.59118	11.91568	9.01257	28.04773	29.27524	23.83044	45.12785	32.94580	19.47650	28.36391	19.53824	24.52559	16.37922	16.16270	14.51456	66.27927	53.50592	35.15376
50500	7.74613	7.37158	10.36999	27.24678	29.55908	41.07345	47.43525	32.61268	22.08483	17.56365	13.04359	14.72791	21.80751	16.55736	15.84401	62.75181	51.99465	31.58093
50660	9.94713	12.29826	10.61816	27.90738	18.15025	17.74891	43.95777	33.94165	22.05149	17.75688	23.66230	25.43441	20.25068	19.80177	19.21251	68.67498	65.38424	37.95224	29.15	6.1	0.00	7.50	0.01270	0.01290	0.01641	0.00784	0.00583	0.00640	0.00469	0.01268	0.01685	0.00678	0.00692	0.00882	0.01491	0.01096	0.01197	0.00220	0.00623	0.00872
50830	12.05742	8.99745	9.12546	44.53422	37.88589	62.13040	46.05089	31.48283	20.34534	27.54948	34.58709	27.88552	17.36242	17.90823	15.41758	61.65493	38.28479	32.24534
50990	10.10662	10.10090	8.07894	28.11852	27.57263	22.54892	45.83349	32.65445	19.38225	18.49385	18.53868	18.91914	18.76200	13.85767	11.92564	65.14388	46.90074	27.85067
51150	13.46922	6.99152	8.76557	41.35123	35.85454	42.99538	43.85615	31.90875	21.72359	45.51305	37.33656	36.18434	19.03196	18.80897	14.58482	58.46558	68.35334	52.74275
51320	9.02913	10.67551	7.76600	38.40268	26.75570	31.66696	44.10556	36.57018	21.86170	27.14198	17.69233	16.01308	18.93881	15.75070	13.79542	57.97768	45.23817	32.11985
51480	9.43055	8.17285	7.50705	23.45838	20.28592	22.41349	43.78654	29.21008	16.61797	32.62702	34.58782	28.35498	14.42962	12.13538	11.48873	67.34411	68.49792	45.93132
51640	6.85190	5.28614	4.56600	39.42392	27.79587	28.99736	40.70241	28.18002	19.19520	20.27714	14.15528	12.32092	15.10029	12.28828	13.10751	54.85662	37.52480	25.31162
51810	7.10176	12.10940	7.79864	24.75307	26.43937	24.59524	43.95777	33.28862	18.90747	23.46150	37.06873	30.32887	16.05390	14.73371	17.55679	58.79135	40.27633	42.25176
51970	10.44264	11.56144	12.13580	51.95487	36.34187	34.08466	48.28061	33.71468	22.98191	22.94930	29.55433	24.35616	19.21861	16.01681	12.26921	60.82605	81.30240	36.49557
52130	8.49295	9.39962	7.72822	34.14850	32.81861	34.05680	45.45111	32.87914	19.77604	46.53634	19.72076	21.02725	16.47252	13.40689	11.59649	59.69161	41.83879	28.98540
52300	9.96985	8.63987	6.33341	28.28918	23.33426	21.56144	43.24751	31.30243	20.96317	26.99900	39.40400	33.67304	17.71116	16.04255	14.89758	71.12252	52.73093	37.27056	29.20	6.2	0.00	7.49	0.01270	0.01290	0.01641	0.00784	0.00582	0.00640	0.00469	0.01268	0.01685	0.00678	0.00692	0.00882	0.01491	0.01096	0.01197	0.00220	0.00623	0.00872
52460	11.01793	11.68320	8.61183	71.88342	42.90490	44.61561	45.17401	37.44055	25.45836	29.13874	16.81407	14.99503	22.39542	16.74843	15.43637	53.48923	46.25750	36.85412
52620	12.97026	10.02956	9.56305	20.18684	20.02372	23.46578	45.03033	33.23262	19.78717	16.44822	14.78390	13.07952	18.52889	20.08323	13.73054	52.92848	44.54031	34.27791
52790	9.49735	11.01244	8.69790	31.03510	46.05190	28.86286	45.24769	30.36206	19.33028	19.64636	22.59483	24.45306	15.93628	11.44717	13.17379	58.44025	42.31861	33.01830
52950	6.07172	5.09431	5.91223	40.75699	22.84817	21.84578	43.14426	30.73089	18.76230	29.00136	28.74451	15.26335	17.15425	15.87673	14.15935	65.14415	47.62418	46.33589
53110	8.66288	8.95699	6.68874	41.48881	43.44218	43.94099	43.80232	33.88931	21.94703	29.91160	19.70875	43.95099	20.18800	16.05958	15.61112	56.72848	45.75441	60.71007
53280	11.12407	10.98653	7.78792	33.91853	56.94408	36.97415	44.33944	33.43891	19.61030	33.62072	28.40284	37.07618	14.35748	12.94537	11.77193	54.09158	39.96362	34.45035
53440	7.25359	5.72663	7.23220	25.46370	34.94071	23.71428	45.79036	30.66529	21.49532	16.62951	20.56531	23.01402	17.52074	16.24749	15.47695	56.47314	45.04603	26.21314
53600	8.42343	9.61918	6.34496	22.14283	36.39717	23.06115	44.33751	31.36842	18.63892	18.31230	28.53980	25.51303	17.27387	14.49324	13.45717	53.22009	41.07703	34.85961
53770	8.55467	7.48838	9.94690	41.07225	33.67390	37.64113	42.04607	29.04788	19.81522	28.26538	38.00341	23.16650	18.01502	16.45380	13.07265	53.87053	47.95624	31.93599
53930	9.16803	9.02925	7.32355	26.90717	20.49993	20.07137	43.31576	33.13048	20.62262	17.73417	11.90551	19.41946	16.03172	14.08827	14.54930	56.60054	50.44781	37.42182	29.20	6.1	0.00	7.62	0.01270	0.01290	0.01641	0.00784	0.00582	0.00640	0.00468	0.01268	0.01684	0.00678	0.00692	0.00882	0.01491	0.01096	0.01198	0.00220	0.00623	0.00872
54090	10.59430	8.91530	9.02101	34.23935	33.42241	30.02532	47.63164	36.98493	24.22218	20.63508	33.74060	24.01011	18.98913	17.99871	14.65788	63.27990	43.31964	27.74175
54260	8.68584	10.26886	7.69661	23.63000	20.36984	20.07860	44.30377	30.82572	22.89856	24.41858	15.94979	13.70394	17.95976	15.05710	14.49174	55.85262	37.93817	25.27398
54420	10.51999	8.67644	7.73448	26.56602	19.79544	17.25635	45.64128	32.56398	18.70709	17.40818	28.55891	16.03423	17.12006	17.15112	13.20679	61.04017	45.70097	28.46971
54580	8.63738	8.98305	9.63533	24.73640	19.84842	19.67044	44.25007	31.61412	21.63434	27.94487	22.50738	21.17753	17.62889	13.48131	12.56898	58.07666	39.64503	27.28882
54750	8.40536	6.83111	6.27079	52.59038	24.73159	24.49327	44.85524	34.66260	22.83357	26.09346	26.29219	32.63467	16.28787	17.43489	18.15833	87.68264	63.31040	47.61623
54910	12.71305	10.44495	11.26714	46.54494	36.54127	33.53022	46.61727	33.24423	21.74181	25.11309	21.37070	19.10709	16.29190	14.61127	12.19244	59.47736	41.33735	27.39693
55070	7.18429	11.62181	9.94913	23.27916	22.18272	24.90611	46.02672	35.26971	22.77297	24.49984	21.47350	24.86571	17.93212	14.82828	14.88878	51.62508	46.61453	33.11188
55240	11.67685	8.18717	7.71529	35.86251	38.50976	28.79204	43.64517	29.85170	19.67729	13.77535	16.90917	24.14488	15.43018	15.47005	13.35003	55.50341	43.42097	29.49658
55400	8.75913	9.80512	7.20338	32.08186	27.54659	26.64529	43.62898	32.38550	20.31252	21.40099	14.14350	14.76320	17.01607	15.00613	16.30058	53.32742	41.59676	38.13465
55560	12.93103	11.89832	12.63371	29.36466	29.09726	27.72193	46.38872	34.81402	23.56196	30.11248	23.91712	18.14617	19.02632	19.42016	17.98245	54.27782	44.62293	28.52108	29.26	6.1	0.00	7.48	0.01270	0.01290	0.01640	0.00784	0.00582	0.00640	0.00468	0.01268	0.01684	0.00678	0.00692	0.00882	0.01491	0.01096	0.01198	0.00220	0.00623	0.00872
55730	12.98290	11.74928	10.13850	22.07959	23.40260	36.36553	43.67671	30.58162	19.91983	34.98981	26.01651	21.04912	18.72988	13.48567	14.57618	51.98251	41.56682	40.91218
55890	9.88983	8.30907	7.76414	30.80789	33.50036	31.45147	45.14503	30.68138	17.38930	24.10780	23.09068	27.76226	14.09906	18.50230	12.94835	52.74837	38.21090	30.44945
56050	9.17828	10.01109	9.80345	32.51910	28.06405	24.15359	45.14085	31.26092	24.82959	30.74623	35.05859	39.84320	20.63444	15.60723	16.18765	68.60677	61.19574	39.06063
56220	10.84421	10.04059	7.18844	24.92113	22.66994	19.15319	43.55642	36.82500	19.77941	16.07041	17.43099	11.46792	17.05520	18.35024	14.60348	51.63345	45.66180	32.06375
56380	14.30204	12.89413	11.13471	43.84956	41.86317	41.62156	46.32495	31.39514	22.04135	27.17815	25.80035	28.53494	19.55771	14.41045	16.13761	73.94136	74.74777	49.16579
56540	10.84252	10.21645	9.45545	33.75123	30.19505	23.80675	43.05688	33.37859	19.87612	22.13105	27.94718	32.14556	18.46591	16.90094	15.90831	70.55085	51.62040	38.14683
56710	12.20405	8.33559	10.51151	24.89416	21.77601	22.57842	45.71538	30.33329	19.84746	17.78170	14.18071	14.63774	17.39017	14.76435	12.17680	48.38965	35.28736	24.48417
56870	7.98428	7.88379	5.22945	29.02609	23.90832	31.64629	42.73281	31.14125	19.39756	26.46742	32.42209	32.96048	19.42925	15.66324	13.23471	84.45681	78.30481	49.00748
57030	10.34828	8.26317	10.21887	31.04622	31.79609	23.67745	47.17711	31.34395	22.48603	34.18838	17.41266	19.30762	19.92774	17.00696	14.18665	70.42292	39.53498	42.31810
57200	11.18932	11.28657	8.68614	48.58707	40.23918	32.35838	45.78017	34.33334	22.62625	32.46782	27.45988	26.16430	19.30444	15.82278	12.65512	64.55956	45.15106	34.24738	29.20	6.1	0.00	7.47	0.01270	0.01290	0.01640	0.00784	0.00582	0.00640	0.00468	0.01268	0.01684	0.00678	0.00692	0.00882	0.01491	0.01096	0.01197	0.00220	0.00623	0.00872
57360	9.92196	11.61828	8.19930	35.06297	56.74020	53.58604	45.21664	32.98230	21.16369	21.97900	19.40165	23.27769	16.05505	14.47985	11.95759	71.92484	51.08125	42.92074
57520	7.46740	7.17306	5.27724	41.64860	39.95842	31.17185	44.76342	30.48690	18.05756	15.65301	18.05858	18.27433	16.96651	14.31264	15.17661	54.72183	38.01772	29.15959
57690	10.29610	11.56842	9.39039	27.02074	19.89077	18.03234	47.63689	34.80101	20.66965	13.66831	24.47906	15.59607	17.18940	17.70443	15.25393	55.09008	43.55029	33.76776
57850	10.00722	9.44726	9.25073	35.46707	41.62955	32.43272	43.98673	30.21884	21.61232	20.43896	21.62086	34.61397	20.16007	15.48944	15.49129	66.33572	74.83935	51.90746
58010	9.80364	9.23583	6.40730	49.27937	67.22791	30.99901	42.50021	33.99069	18.42972	23.70588	26.57499	34.17905	16.17714	13.52913	12.38079	49.37827	44.81134	29.96909
58180	12.30109	9.48790	8.45888	32.12964	34.44168	38.68689	49.71844	32.13721	22.49562	42.83168	42.99036	27.08262	19.50373	16.87366	14.09576	67.37368	56.34742	35.71803
58340	8.87918	7.95070	7.39134	23.59391	26.16365	33.90319	43.38465	31.34317	19.05740	30.14102	25.78549	32.18307	14.63331	12.84734	11.38866	76.22888	48.02005	32.50413
58500	11.03824	10.40882	8.57336	26.89519	26.21162	26.88600	45.26947	32.27518	23.23889	23.59563	27.31519	16.86089	19.06842	18.62495	14.21944	66.85607	51.33759	36.51973
58670	9.72630	8.06436	9.95419	46.54314	36.45301	22.85347	44.74129	31.91379	21.66762	23.07682	16.76347	27.74077	18.00003	14.73420	15.55516	66.27954	49.46106	48.08788
58830	9.99077	7.35970	5.63896	27.75709	24.52499	23.11460	41.06963	28.68231	17.41525	16.76091	13.53180	13.13991	14.85541	18.95426	13.70736	48.75252	36.88077	26.42291	29.20	6.1	0.00	7.71	0.01270	0.01290	0.01640	0.00784	0.00582	0.00640	0.00468	0.01268	0.01685	0.00678	0.00692	0.00882	0.01491	0.01095	0.01197	0.00219	0.00623	0.00872
58990	10.68872	12.29761	10.51692	21.77354	19.03619	24.63974	49.78542	34.62503	23.62910	29.11092	26.02006	27.03279	19.01603	16.15957	13.61209	69.99896	62.41933	42.54892
59160	7.40072	8.47255	7.12610	34.37024	34.44115	30.91468	45.97215	30.37723	18.70362	28.75114	39.11159	29.81100	16.00380	13.70578	11.45173	69.67894	54.67879	43.11396
59320	8.70941	6.39816	6.95294	25.39241	30.06263	25.81857	42.74966	30.99640	23.40373	24.72142	17.55087	13.90008	17.74908	13.54856	14.33828	48.45585	35.08819	23.88777
59480	10.16488	8.43221	8.81978	28.65358	27.87536	19.22338	44.16030	35.34762	19.12401	21.16398	36.02382	27.39487	18.44720	16.13818	12.76883	74.42633	57.01670	44.82066
59650	10.29386	9.49745	8.76691	54.89648	27.62967	28.94883	44.75601	30.00099	18.94022	28.97513	27.50344	21.98905	15.19266	13.17076	10.32952	54.62068	41.32701	23.27241
59810	7.28039	7.71266	5.42169	22.48606	38.48914	26.68610	44.76809	32.08752	19.71618	22.23471	19.79837	15.93819	17.43301	14.63112	14.79543	66.47295	38.68611	26.27031
59970	9.69221	9.48207	8.52381	24.18371	22.90034	32.17943	45.97215	32.90761	21.39453	18.18530	24.67054	24.49154	18.10748	15.13559	12.59463	61.86260	49.84366	33.76275
60140	7.44389	9.24222	5.87919	47.71201	38.63942	48.13259	41.30483	28.01552	17.89393	24.94941	17.52352	21.02244	17.47848	14.17254	16.06526	67.75128	49.71482	40.48546
60300	11.61813	9.24011	9.48266	25.44189	30.42794	29.41718	44.21735	32.58318	28.28871	25.62972	30.99050	22.49242	18.28828	16.30415	14.22116	57.01723	65.61626	40.37257
60460	9.50710	8.36930	8.45440	28.99474	20.13548	20.60744	45.73733	31.49955	23.00090	54.28422	22.31071	31.87864	19.98660	14.94117	13.36969	72.52955	53.29349	44.38624	29.20	6.2	0.00	7.58	0.01270	0.01290	0.01640	0.00784	0.00582	0.00640	0.00468	0.01268	0.01685	0.00678	0.00692	0.00882	0.01491	0.01096	0.01197	0.00219	0.00623	0.00872
60630	7.39456	6.60234	6.05806	33.98473	59.58141	50.54801	45.75066	35.38923	20.59460	32.89620	27.39656	23.25017	15.92859	16.58342	12.43722	68.35347	47.02724	46.93755
60790	8.12402	11.01667	10.17244	36.05439	29.95593	25.61099	44.66488	30.17629	19.97183	14.90189	13.49667	15.08239	17.67265	12.29889	12.01380	71.25331	47.42801	25.32798
60950	8.94336	8.92263	7.33222	30.71364	24.90623	27.14823	45.85792	31.39512	17.89057	35.56361	25.12423	26.96644	14.74930	14.26133	12.66081	66.27492	49.43899	43.23177
61120	8.05697	8.08360	7.79027	24.87355	21.55488	52.14229	43.95118	33.57203	22.09628	41.51232	35.97227	26.20149	17.87430	14.43858	13.14810	66.47295	59.42453	39.30264
61280	12.32270	12.09530	11.65286	34.98980	32.11510	28.03846	48.58681	34.49405	22.62566	21.13789	15.80014	12.25002	20.75199	18.65961	17.27868	51.50866	45.03550	53.32727
61450	11.42118	9.06954	10.29894	34.35327	35.56279	29.52044	47.18457	30.26852	18.31567	40.11865	26.88001	16.78267	13.86604	12.52301	9.91467	57.88633	41.68406	39.85465
61610	8.39270	7.92156	6.11997	35.02322	30.78804	26.17337	45.47445	36.87016	24.21918	21.21587	19.22558	19.32458	20.19562	16.98058	16.87821	74.81347	59.83969	39.71353
61770	10.46293	11.63044	12.20888	31.68794	42.63451	39.21219	45.92555	34.01018	19.69719	54.89774	29.29155	20.10525	16.75670	17.14359	11.56874	57.35586	42.43736	30.15583
61940	10.26293	11.83566	9.95617	38.60884	30.88473	34.05492	45.21197	30.34656	21.41722	30.47391	40.64546	40.05581	17.40004	13.47293	15.94774	77.77840	50.86861	47.70634
62100	10.26287	8.74975	7.90175	36.96434	39.53066	37.46289	43.81012	32.22253	22.38065	26.10825	25.73563	24.94274	17.74667	15.87648	12.59073	56.39636	38.70673	25.26027	29.20	6.0	0.00	7.49	0.01270	0.01290	0.01640	0.00784	0.00582	0.00640	0.00468	0.01268	0.01685	0.00678	0.00692	0.00882	0.01491	0.01095	0.01197	0.00220	0.00623	0.00872
62260	6.53995	5.92233	7.78695	47.79190	46.43585	48.97937	43.19946	30.82931	20.77413	36.08114	17.32670	24.76715	16.50314	13.44188	11.01003	68.70737	56.57876	47.61198
62420	8.01556	9.25239	8.17519	44.16730	43.11088	33.90046	44.83265	33.01385	19.68707	30.82958	26.00313	31.78925	17.12345	13.56153	12.47061	61.06932	44.72355	46.00527
62590	12.74538	11.25841	11.46545	33.05852	27.05760	36.46506	44.49770	31.74682	20.40627	28.83634	22.72318	22.60455	16.23983	19.34382	14.86975	49.21770	37.00084	29.20799
62750	9.25167	9.83338	5.74540	32.32176	39.77607	32.13939	41.27828	29.61958	18.81349	45.19471	53.94091	46.66714	15.98732	13.68343	11.30370	78.80554	69.74760	48.72522
62920	7.99908	6.49797	4.55387	34.52137	31.13925	28.55169	41.74368	28.62898	18.72373	19.37585	17.63547	15.14511	15.16308	13.12032	12.34909	52.56312	42.21967	26.49428
63080	8.45531	8.70188	8.04112	21.79246	21.00772	18.08561	43.85231	33.09241	21.53464	32.71665	26.20026	21.51642	20.53053	15.66372	19.34854	67.68954	47.85823	37.29442
63240	13.92194	10.23166	11.84824	44.76991	43.45663	42.95899	46.12981	35.97221	21.44262	86.25561	38.09619	50.49896	22.01457	16.18207	14.96324	84.80175	87.76195	81.73619
63410	8.98580	10.96758	6.79599	72.22715	58.20032	54.77308	42.08439	31.76896	21.55624	26.28275	31.77483	24.89555	17.07979	13.04071	15.02768	61.51157	43.30216	47.00788
63570	10.46818	7.79825	6.74400	34.44610	33.74651	32.66443	43.54994	29.17907	17.95595	31.61354	34.51127	29.62600	17.13111	15.27817	12.62765	66.27791	41.61074	30.01338
63740	8.76809	7.59157	7.23529	26.75677	20.83438	18.26768	44.23172	36.00510	22.83246	18.55759	18.84288	29.63163	22.55978	16.88640	16.81892	81.87903	62.52296	39.11707	29.20	6.2	0.00	7.50	0.01270	0.01290	0.01641	0.00784	0.00582	0.00639	0.00468	0.01268	0.01685	0.00678	0.00692	0.00882	0.01491	0.01096	0.01198	0.00220	0.00623	0.00872
63900	10.59883	8.44953	8.53358	35.78488	18.55013	17.52281	43.14875	31.80848	21.62795	27.86202	18.33362	15.97197	15.40205	13.32235	12.00096	55.76853	43.04670	33.52550
64060	6.66041	6.62303	5.83278	48.37683	38.52587	24.73435	42.81842	29.50002	17.50490	22.63813	27.63799	37.45353	14.10600	16.63401	12.48033	70.45805	67.95021	60.91072
64220	11.31176	11.12478	11.01253	49.28946	34.84593	43.45080	48.99958	35.94074	20.14193	27.23881	33.49098	28.29703	17.63094	17.24563	13.25002	70.04133	51.76658	37.96246
64390	12.08760	10.44756	13.82904	43.51772	36.77665	31.15297	48.16491	31.98807	21.41728	17.09741	17.24009	19.07301	18.90276	14.17618	12.14588	66.79391	51.01834	30.46137
64550	9.25744	9.10846	5.74414	20.88529	19.18146	20.06778	42.66869	30.05258	17.09227	20.44062	38.59540	36.89396	13.93218	11.82930	13.35269	69.06969	48.15686	34.75497
64710	7.43121	6.79213	6.34343	50.67744	31.67334	27.43402	42.14531	33.06823	23.18905	28.97312	36.64920	21.88036	19.60817	14.91503	12.61934	60.58085	57.09133	37.85456
64880	11.33007	12.35764	8.26500	54.18357	51.55783	25.76265	45.98453	36.53998	24.03712	23.56864	32.85855	43.26194	22.21542	18.47549	15.48448	125.05391	69.82875	60.18092
65040	12.27393	8.31275	9.69617	47.81398	49.09659	32.94251	46.43360	34.08569	23.05408	17.11746	14.68748	12.87896	17.88712	15.02571	13.89196	48.88615	35.54586	24.44797
65210	9.00794	12.39744	9.01185	25.94144	26.61123	21.42283	44.67685	35.06665	23.42249	32.79602	43.70000	25.74889	20.00863	17.72416	14.78892	61.38920	63.61598	58.59448
65370	12.73668	9.44511	8.82070	32.21081	30.76895	36.68903	44.63781	30.20880	22.27404	35.61782	26.35272	19.29705	18.40782	16.76343	12.19806	56.58285	41.01649	38.03114	29.26	6.1	0.00	7.64	0.01270	0.01290	0.01640	0.00784	0.00582	0.00639	0.00468	0.01268	0.01685	0.00678	0.00692	0.00882	0.01491	0.01095	0.01197	0.00219	0.00623	0.00872
65530	7.92387	6.76915	5.17520	53.94406	37.27663	20.27772	42.42708	28.85663	17.50399	15.77494	11.33314	10.75702	15.34944	14.24532	11.13326	67.06135	57.82387	30.90137
65700	8.66989	9.87222	6.21986	34.35330	36.58202	34.38703	44.76793	31.43129	18.10061	42.14008	41.46389	31.76358	15.80659	15.42899	13.78956	77.77840	54.03865	53.31125
65860	9.81601	8.85519	6.23200	43.01618	35.45591	31.50656	43.52116	31.70265	18.78675	46.40116	37.99315	49.48190	17.67003	16.01671	14.65065	60.29795	40.34513	32.93514
66020	11.13481	7.81985	8.78298	51.98816	56.95824	53.18737	44.40195	32.55383	20.67159	45.78426	38.57029	42.48494	16.11656	14.37788	11.68441	63.78359	43.55789	35.37186
66190	8.42318	11.48451	8.41086	33.32041	26.75023	32.04297	45.37859	35.30681	22.56695	16.34639	13.57541	9.37357	18.80635	14.92527	16.92081	64.13918	56.75942	35.03202
66350	10.59449	9.92966	8.75462	47.78185	35.53828	23.85662	44.92020	31.15187	19.02955	27.73411	25.72452	44.99486	16.31608	15.16001	12.47905	86.34027	85.52890	62.10215
66510	10.34331	9.31846	6.30229	40.44140	41.35287	41.76067	43.14587	31.95555	20.16274	34.13432	16.08013	18.83182	18.22255	12.97376	11.25670	60.37529	57.37881	34.01498
66670	7.84701	7.96296	8.14189	23.47418	23.60628	21.69334	43.23708	29.76979	17.70002	17.25676	14.44010	11.43758	14.61875	13.87703	12.37071	60.70681	48.64011	44.52495
66840	9.95302	9.18857	5.50025	30.45647	20.85099	31.76470	45.01889	30.90819	21.15937	21.53593	16.25006	15.36162	18.60975	15.70948	13.76973	66.08074	41.48124	26.59740
67000	14.23310	13.06712	12.47827	21.55907	20.12908	19.17171	42.96710	33.35657	22.69288	24.65120	19.64580	16.42121	18.64920	16.31357	14.44008	73.23960	43.03546	35.12169	29.20	6.1	0.00	7.52	0.01270	0.01290	0.01640	0.00784	0.00582	0.00639	0.00468	0.01268	0.01685	0.00678	0.00691	0.00882	0.01491	0.01096	0.01197	0.00220	0.00623	0.00872
67170	10.28410	7.38159	7.49474	29.99009	35.05821	47.95366	44.11615	29.51545	19.39591	40.88539	28.04219	33.10430	17.24967	14.00810	11.69529	68.60297	73.07688	48.93986
67330	8.55960	8.53541	4.81389	36.40505	24.29799	55.30122	41.31560	30.21255	18.94744	39.86898	19.40483	35.36905	16.33241	15.05554	18.77718	77.52154	57.79381	72.10245
67490	11.28525	9.11978	11.63704	57.45680	66.05940	52.58058	48.44448	33.46320	23.19464	22.20931	20.66431	15.31000	18.57579	21.92991	16.44112	84.62693	40.90426	23.26758
67660	11.34061	13.98520	9.40072	24.14670	29.30922	31.24149	46.79298	35.14153	21.58990	26.55276	17.49138	18.46961	19.60032	14.62444	12.74762	65.92241	55.85470	27.01831
67820	7.17565	5.86626	6.37907	24.12371	19.99866	23.00849	45.27159	32.57694	19.56482	14.64888	12.71219	17.26521	16.60571	15.46118	12.39859	51.83894	41.59589	25.75950
67990	11.35969	9.01362	9.51138	23.98799	19.99473	21.43566	44.46383	32.52921	21.83292	13.93258	12.57048	12.77612	19.10738	15.78683	13.62365	62.17885	54.94722	47.28868
68150	13.06294	8.62021	11.53663	46.81055	49.28834	40.64366	46.63388	34.48250	23.72532	47.44511	25.29616	18.39927	20.14340	17.87426	15.62245	71.92538	43.47712	32.84787
68310	10.70639	12.37831	6.80895	23.00044	27.43793	31.88397	45.17248	31.63032	20.49424	32.70161	21.24330	19.30893	24.03954	17.16785	17.56714	60.39599	46.67808	41.63999
68480	12.15430	8.64468	9.00729	40.16371	51.70013	36.42054	47.25759	34.39277	19.41025	36.82961	30.38950	19.23839	18.25462	13.82224	11.48311	49.16914	36.60550	28.82855
68640	7.21335	5.12388	3.87482	33.08812	23.35726	23.93642	45.86636	31.65955	21.44737	20.88891	24.05516	23.09628	21.59152	14.99457	17.38457	58.77974	53.14813	36.43274	29.20	6.1	0.00	7.54	0.01270	0.01290	0.01640	0.00784	0.00582	0.00640	0.00468	0.01268	0.01684	0.00678	0.00691	0.00882	0.01491	0.01095	0.01197	0.00220	0.00623	0.00872
68810	12.94166	13.82159	9.52330	27.70007	20.51524	23.86250	45.65494	34.22946	20.26108	24.24083	22.28214	28.79999	15.85040	13.91741	11.73180	77.26892	67.55407	52.69739
68970	10.29982	8.68682	9.31936	33.60917	28.66177	43.54182	44.64813	33.46356	21.53980	27.78430	34.84840	31.99012	19.97735	14.18525	14.92238	67.98905	65.08892	31.93664
69130	8.97670	10.47018	6.22660	29.55936	28.85757	27.62075	42.17200	35.69378	20.10366	21.46476	20.41631	20.58145	17.40378	17.35432	15.39978	74.37111	57.84294	54.97664
69300	12.61736	10.77941	9.88299	42.83224	38.87668	31.75133	46.00451	31.64152	19.14916	42.26753	20.40200	23.95369	16.18946	13.52154	10.59711	54.22627	41.74437	24.91475
69460	6.16521	10.29911	6.50393	23.77679	24.44653	31.47238	42.56191	34.01573	20.31649	23.00055	17.50556	16.40477	18.20333	16.28377	15.16607	49.49065	42.36642	38.71804
69620	12.60119	9.07976	7.59175	32.48967	37.45030	22.94891	43.62144	30.75712	19.05872	18.34405	16.05918	12.43623	16.29288	14.67492	14.77674	56.71906	36.17993	37.42025
69790	9.94592	10.22919	6.34151	30.66157	36.80811	34.33257	44.91040	30.49122	18.95199	21.33759	25.34492	28.16667	18.08345	15.51260	18.90036	81.23989	66.67659	46.62012
69950	11.63146	9.40174	9.25016	39.01327	42.94139	36.94274	45.38553	31.86783	19.28593	36.52825	38.69368	36.43387	17.36445	16.87252	12.35321	69.76586	48.14403	36.67124
70120	8.15403	6.72878	5.21054	27.99881	32.20316	28.97680	41.33731	29.33965	20.99321	32.90299	19.03433	23.48506	17.89160	15.89701	16.11158	64.56282	51.83344	35.19296
70280	11.64964	7.93767	7.68224	33.60372	37.20637	21.01960	44.30497	33.15139	19.76690	20.77943	14.91960	13.76043	15.91405	14.10217	11.24650	51.68237	38.16078	31.35277	29.20	6.0	0.00	7.57	0.01270	0.01290	0.01640	0.00784	0.00582	0.00640	0.00468	0.01268	0.01684	0.00678	0.00691	0.00882	0.01491	0.01095	0.01197	0.00220	0.00623	0.00872
70440	7.63557	6.61971	5.95030	42.88048	35.54542	28.79326	42.31508	28.22499	20.71998	32.57143	24.56351	23.36799	17.40114	13.95573	13.44191	67.37504	56.39366	35.63029
