WetView ver 7.1	07-14-2018	13:22:43
AC9 Absorption and Attenuation Meter
00000266		; Serial number
2	; structure version number
Reserved
0.000000	0.000000		; Depth calibration
19200			; Baud rate
0.100000			; Path length (meters)
31			; number of temperature calibration bins
				12.59339	13.44920	14.48425	15.49668	16.50852	17.49564	18.50545	19.52458	20.50176	21.48889	22.47318	23.48707	24.50962	25.49370	26.49784	27.51372	28.50746	29.47237	30.47938	31.50214	32.50470	33.49235	34.50337	35.50914	36.50618	37.52058	38.51018	39.51308	40.49994	41.49866	42.47204	; temperature bins
a650	Blue	20.34952		-0.00383	-0.00415	-0.00430	-0.00391	-0.00363	-0.00317	-0.00269	-0.00237	-0.00179	-0.00130	-0.00099	-0.00071	-0.00015	0.00000	0.00004	-0.00001	0.00015	0.00036	0.00058	0.00101	0.00161	0.00132	0.00160	0.00169	0.00242	0.00273	0.00336	0.00365	0.00427	0.00566	0.00670		; offset and temperature correction info
a676	Green	20.51193		-0.00398	-0.00384	-0.00360	-0.00306	-0.00302	-0.00255	-0.00235	-0.00212	-0.00163	-0.00136	-0.00118	-0.00089	-0.00029	0.00000	0.00068	0.00082	0.00099	0.00137	0.00145	0.00212	0.00260	0.00252	0.00321	0.00354	0.00457	0.00535	0.00617	0.00648	0.00742	0.00887	0.01002		; offset and temperature correction info
a715	Brown	20.23230		-0.00421	-0.00394	-0.00391	-0.00291	-0.00264	-0.00192	-0.00204	-0.00179	-0.00188	-0.00239	-0.00180	-0.00187	-0.00099	0.00000	0.00084	0.00162	0.00188	0.00224	0.00321	0.00381	0.00466	0.00528	0.00588	0.00696	0.00859	0.01041	0.01148	0.01282	0.01333	0.01456	0.01617		; offset and temperature correction info
c510	Red	20.40042		-0.00261	-0.00247	-0.00258	-0.00225	-0.00203	-0.00197	-0.00199	-0.00203	-0.00154	-0.00103	-0.00069	-0.00019	-0.00007	0.00000	0.00011	-0.00021	-0.00042	-0.00056	-0.00040	0.00011	0.00036	0.00050	0.00077	0.00079	0.00050	0.00042	0.00043	0.00092	0.00147	0.00200	0.00232		; offset and temperature correction info
c532	Magenta	20.40760		-0.00248	-0.00265	-0.00278	-0.00279	-0.00296	-0.00292	-0.00238	-0.00206	-0.00129	-0.00096	-0.00092	-0.00052	-0.00009	0.00000	0.00007	-0.00049	-0.00136	-0.00107	-0.00079	-0.00065	-0.00074	-0.00105	-0.00152	-0.00192	-0.00236	-0.00269	-0.00252	-0.00233	-0.00172	-0.00128	-0.00067		; offset and temperature correction info
c555	Black	20.50654		-0.00053	-0.00063	-0.00106	-0.00094	-0.00068	-0.00055	-0.00053	-0.00039	-0.00028	-0.00025	-0.00011	-0.00035	-0.00007	0.00000	-0.00037	-0.00055	-0.00036	-0.00014	0.00019	0.00044	0.00032	0.00040	0.00050	0.00028	0.00014	0.00013	0.00030	0.00073	0.00117	0.00176	0.00241		; offset and temperature correction info
a412	LtBlue	17.15231		-0.01972	-0.01823	-0.01612	-0.01381	-0.01272	-0.01080	-0.00959	-0.00866	-0.00710	-0.00532	-0.00354	-0.00148	-0.00028	0.00000	0.00176	0.00297	0.00394	0.00440	0.00453	0.00487	0.00804	0.00856	0.01065	0.01248	0.01388	0.01439	0.01659	0.01881	0.02256	0.02450	0.02719		; offset and temperature correction info
a440	LtGreen	18.00171		-0.00729	-0.00642	-0.00581	-0.00502	-0.00426	-0.00349	-0.00244	-0.00218	-0.00179	-0.00101	-0.00046	-0.00006	0.00036	0.00000	0.00040	0.00045	0.00030	-0.00015	-0.00024	-0.00035	0.00012	-0.00013	-0.00033	-0.00089	-0.00142	-0.00189	-0.00231	-0.00205	-0.00140	-0.00140	-0.00146		; offset and temperature correction info
a488	Yellow	18.86491		-0.00113	-0.00102	-0.00106	-0.00064	-0.00027	-0.00020	-0.00030	-0.00037	-0.00047	-0.00059	-0.00052	-0.00012	0.00008	0.00000	0.00025	0.00012	-0.00013	-0.00043	-0.00065	-0.00076	-0.00025	0.00010	0.00090	0.00111	0.00113	0.00104	0.00073	0.00068	0.00120	0.00186	0.00258		; offset and temperature correction info
c650	Blue	20.46075		-0.00145	-0.00097	-0.00092	-0.00139	-0.00185	-0.00196	-0.00237	-0.00266	-0.00238	-0.00163	-0.00083	-0.00041	-0.00010	0.00000	0.00005	-0.00001	0.00015	0.00034	0.00029	0.00065	0.00101	0.00164	0.00126	0.00156	0.00175	0.00270	0.00287	0.00371	0.00407	0.00473	0.00534		; offset and temperature correction info
c676	Green	20.10118		-0.00170	-0.00144	-0.00149	-0.00177	-0.00188	-0.00194	-0.00198	-0.00196	-0.00177	-0.00156	-0.00140	-0.00091	-0.00033	0.00000	0.00050	0.00092	0.00110	0.00141	0.00167	0.00199	0.00216	0.00265	0.00269	0.00289	0.00315	0.00374	0.00367	0.00408	0.00486	0.00561	0.00646		; offset and temperature correction info
c715	Brown	19.91219		-0.01201	-0.01097	-0.00859	-0.00680	-0.00651	-0.00592	-0.00535	-0.00440	-0.00387	-0.00303	-0.00222	-0.00153	-0.00028	0.00000	0.00093	0.00149	0.00247	0.00322	0.00330	0.00427	0.00373	0.00464	0.00536	0.00551	0.00643	0.00733	0.00779	0.00884	0.00899	0.01021	0.01120		; offset and temperature correction info
a510	Red	19.21192		0.00201	0.00193	0.00158	0.00098	0.00089	0.00049	0.00011	-0.00016	-0.00016	-0.00005	0.00028	0.00025	0.00006	0.00000	0.00035	-0.00022	-0.00023	-0.00080	-0.00144	-0.00154	-0.00153	-0.00204	-0.00220	-0.00219	-0.00190	-0.00128	-0.00069	-0.00018	0.00068	0.00152	0.00241		; offset and temperature correction info
a532	Magenta	19.41084		-0.00097	-0.00072	-0.00060	-0.00081	-0.00062	-0.00071	-0.00040	0.00020	0.00028	0.00043	0.00000	-0.00035	0.00007	0.00000	-0.00011	-0.00059	-0.00080	-0.00098	-0.00137	-0.00162	-0.00163	-0.00130	-0.00073	-0.00018	0.00090	0.00185	0.00175	0.00247	0.00291	0.00327	0.00349		; offset and temperature correction info
a555	Black	19.69776		0.00171	0.00183	0.00183	0.00186	0.00191	0.00170	0.00115	0.00131	0.00097	0.00073	0.00060	0.00013	0.00015	0.00000	0.00014	-0.00029	-0.00066	-0.00082	-0.00116	-0.00139	-0.00134	-0.00167	-0.00119	-0.00093	-0.00048	0.00053	0.00111	0.00095	0.00178	0.00206	0.00273		; offset and temperature correction info
c412	LtBlue	19.91180		-0.02051	-0.01853	-0.01589	-0.01311	-0.01059	-0.00877	-0.00705	-0.00581	-0.00413	-0.00231	-0.00098	-0.00066	-0.00011	0.00000	-0.00013	-0.00085	-0.00170	-0.00170	-0.00302	-0.00330	-0.00429	-0.00551	-0.00626	-0.00775	-0.00978	-0.01181	-0.01113	-0.01108	-0.01116	-0.01192	-0.01291		; offset and temperature correction info
c440	LtGreen	20.06241		-0.01064	-0.00992	-0.00892	-0.00766	-0.00639	-0.00531	-0.00478	-0.00384	-0.00287	-0.00187	-0.00102	-0.00063	-0.00023	0.00000	-0.00007	-0.00053	-0.00090	-0.00119	-0.00169	-0.00197	-0.00226	-0.00257	-0.00260	-0.00289	-0.00394	-0.00470	-0.00481	-0.00493	-0.00520	-0.00580	-0.00620		; offset and temperature correction info
c488	Yellow	20.35984		-0.01125	-0.01082	-0.00966	-0.00833	-0.00726	-0.00661	-0.00579	-0.00500	-0.00389	-0.00278	-0.00167	-0.00113	-0.00041	0.00000	0.00055	0.00121	0.00187	0.00226	0.00222	0.00251	0.00281	0.00359	0.00414	0.00427	0.00401	0.00404	0.00486	0.00563	0.00638	0.00684	0.00718		; offset and temperature correction info
0.003500	0.004000	0.015000	0.020000	0.015000	0.020000	2500.000000	2000.000000	1000.000000	; maxANoise	maxCNoise	maxADifference	maxCDifference	minACounts	minCCounts	minRCounts	maxTempSdev	maxDepthSdev
0			; auxilliary capabilities
1			; acquisition binsize
0	8.41008	8.44815	7.42317	22.43731	19.97758	22.17091	43.26759	30.47771	19.17575	20.22604	29.09734	31.77339	15.62935	12.70043	10.60930	76.85191	47.11549	31.58764	29.32	6.2	0.00	7.50	0.01270	0.01290	0.01640	0.00783	0.00582	0.00639	0.00468	0.01268	0.01684	0.00678	0.00691	0.00882	0.01490	0.01095	0.01197	0.00220	0.00623	0.00872
160	6.35014	5.64624	4.76348	35.32404	40.26914	35.40136	41.23443	29.32204	21.90437	37.54028	28.02480	41.47229	16.28510	16.31704	14.43546	70.93826	48.98432	40.67017
320	8.99415	7.80037	5.49809	24.62835	22.84016	28.93857	42.67339	29.82488	18.45670	25.75033	25.24230	21.82177	13.76365	11.65566	10.78116	54.11237	38.47946	25.10954
490	11.70512	11.88675	12.71948	24.66138	28.10047	19.40586	44.20700	39.23872	22.38556	17.46319	11.48876	17.29506	19.74362	18.21959	17.31788	52.53418	49.01023	29.51505
650	13.37840	11.28038	12.22362	41.40674	39.30161	44.63396	43.81289	30.79646	18.63389	40.45192	29.05883	12.53087	15.98228	13.19096	11.34723	58.20861	42.00465	39.88748
810	9.13640	8.38967	9.04120	41.86271	42.70650	55.44879	45.39936	29.05818	20.05640	11.81551	11.00499	9.18143	15.72588	14.19050	16.49523	46.81426	36.81449	37.87670
980	8.89081	10.22507	9.02981	48.34194	24.28773	22.48701	42.66359	28.36397	17.65407	36.31476	30.84163	22.95878	14.49594	14.93774	10.43495	69.56396	64.88392	51.21781
1140	6.00680	7.61311	4.22248	43.78834	36.45174	33.25896	41.52884	29.73570	19.22737	20.20863	12.23029	19.48772	18.20066	16.24345	15.58025	50.94520	46.39364	30.48005
1300	10.84900	10.05675	8.80710	24.03783	21.72796	32.30880	42.81493	29.05349	17.28167	38.82135	30.56437	33.82546	14.04033	11.25065	9.77818	65.91969	54.77560	33.40477
1470	5.85887	5.53913	4.26281	24.29897	21.60687	18.54290	41.10507	30.88509	17.20678	21.39838	22.73423	30.17221	17.30962	15.85843	18.42508	63.23387	68.67556	43.28397
1630	15.16389	10.81562	10.15885	39.46434	62.69117	58.28854	42.76505	31.81078	21.59339	54.68016	75.86818	48.84995	17.16183	15.63047	13.21029	65.21862	44.67229	27.43698	29.38	6.1	0.00	7.52	0.01270	0.01290	0.01640	0.00783	0.00582	0.00639	0.00468	0.01267	0.01684	0.00678	0.00691	0.00882	0.01490	0.01095	0.01196	0.00220	0.00623	0.00872
1790	7.03591	5.84082	3.91579	29.50157	19.87334	16.63663	40.66941	29.09873	20.35793	16.04540	10.96671	9.47938	18.03461	13.42490	13.67172	46.37544	34.44439	22.39858
1960	11.48489	11.48865	12.60913	18.34126	18.04623	20.86815	45.50812	32.07043	22.43903	41.67632	26.89930	15.37650	19.52253	15.25174	13.36227	60.87433	46.57565	42.57313
2120	10.15242	8.50199	6.01755	56.19592	35.43249	36.79951	41.34559	30.10298	23.14614	35.42153	28.25189	36.61931	18.48088	17.58658	11.68590	84.62747	64.60781	62.71114
2280	10.82518	11.40595	13.89837	46.91694	44.30599	36.43940	43.98585	30.74218	22.76872	27.56757	26.20586	23.70750	19.33545	16.80315	13.74688	54.04122	44.41225	37.24980
2450	12.25251	11.76061	8.26029	19.80184	16.50582	14.60475	43.30014	29.87470	16.66709	15.36338	19.81518	16.96380	14.25357	12.36939	11.45326	77.35113	46.82278	35.34809
2610	10.06473	9.43858	9.45742	47.47812	34.17932	26.46307	42.04012	27.80527	19.28821	16.97107	14.30650	13.02623	16.71144	14.03284	14.15322	51.77361	35.60581	23.65440
2770	9.45762	8.25353	5.03148	30.39689	17.95386	17.37355	40.94321	31.26629	21.78100	23.97711	22.84703	35.09476	18.67397	15.66878	13.58228	84.80446	52.96088	41.88253
2940	7.15207	7.11605	5.19172	40.02004	31.26049	20.69572	42.75187	30.71565	19.05719	18.72187	18.22834	15.68132	13.63084	13.96740	10.27846	51.48242	36.02515	24.56817
3100	9.03111	9.74119	10.29242	25.44862	66.78100	38.03188	48.45314	35.72120	25.75115	26.65308	23.82360	29.87105	18.95619	17.15891	15.40056	66.65156	62.55408	62.09739
3260	11.07608	9.21651	8.13816	34.96201	32.19770	25.35724	43.35046	31.05153	20.08997	21.93378	9.94798	9.85219	13.19506	13.16666	9.73359	51.22216	42.83972	30.54646	29.32	6.1	0.00	7.49	0.01270	0.01290	0.01640	0.00784	0.00582	0.00639	0.00469	0.01267	0.01684	0.00678	0.00691	0.00882	0.01490	0.01095	0.01196	0.00220	0.00623	0.00872
3420	8.29162	8.87423	7.03431	30.00306	24.65671	18.77781	43.13952	31.41404	21.57729	15.82148	27.01286	16.64436	17.83361	14.93408	15.94616	58.00566	53.71816	50.72679
3590	10.57067	8.52026	7.43910	43.57672	26.70394	22.61306	43.16693	31.91683	19.01862	43.57671	34.17113	25.42600	15.59171	15.77775	13.31993	59.57986	43.26588	34.16067
3750	10.99877	10.57475	9.49947	34.64093	38.66966	51.91935	45.81927	36.17540	23.90805	58.85307	35.64695	34.57870	24.80306	15.95428	15.72200	63.24120	44.72060	24.66891
3920	12.22002	9.66688	8.53221	23.76516	29.08442	32.78152	43.82823	32.33759	19.68064	30.12895	44.85177	29.48071	17.54803	13.26644	10.86204	69.41685	51.78703	35.40163
4080	8.30905	7.92060	11.47366	56.91176	44.09501	59.19312	47.20616	34.36981	23.95128	33.24043	19.43242	17.79483	18.29015	14.19284	13.28674	55.37355	42.73296	28.55624
4240	7.59743	8.08756	6.61857	33.18665	24.00551	19.62785	43.07642	31.74790	20.10018	15.83420	14.20898	16.14944	15.39689	17.77599	13.19984	57.42320	38.67615	27.29000
4410	11.23357	9.11694	6.89458	24.21695	20.08370	24.50456	42.59354	31.71097	20.70784	24.85419	21.68937	26.51877	19.43776	14.42565	11.65375	56.09511	56.51588	38.83231
4570	6.63250	8.82116	7.22195	26.55257	24.31567	23.45162	46.57636	33.39128	19.57533	18.58300	19.14374	18.46780	15.95011	17.44574	12.77040	49.21940	35.49503	25.84630
4730	8.81693	8.36612	8.39699	22.32359	23.12337	17.29427	43.07472	29.30724	18.22473	19.24163	20.65294	39.97504	15.50813	12.27560	12.63189	68.19230	45.29914	37.12367
4900	8.21964	8.39349	9.42983	26.81938	28.28371	33.18332	45.45658	33.59112	19.03379	32.46105	36.08213	35.51130	17.34451	17.00350	14.91387	52.82933	46.48692	42.22892	29.38	6.1	0.00	7.50	0.01270	0.01290	0.01640	0.00783	0.00582	0.00639	0.00469	0.01267	0.01684	0.00678	0.00691	0.00881	0.01490	0.01095	0.01197	0.00220	0.00623	0.00872
5060	9.14820	7.92458	10.50994	59.27681	28.12212	29.79549	43.64056	29.45454	19.01135	18.01894	15.46891	18.08910	17.50153	14.93380	13.49665	67.75400	38.44115	28.17997
5220	7.99175	9.86534	5.97631	36.20688	40.71238	40.64469	43.86619	29.15185	19.58007	39.99436	27.81936	34.89624	19.01417	14.48793	13.99226	55.51815	54.39761	39.55220
5380	13.25647	7.82132	6.80723	40.85377	34.00047	33.69333	42.90874	32.85958	20.28015	35.30960	17.69015	14.54929	16.71944	18.20459	13.70976	55.86804	43.45705	43.35671
5550	9.48078	10.72515	7.13596	25.23284	43.54045	30.18542	43.34801	31.17979	20.73413	41.18398	36.47200	36.33163	18.01830	13.71792	12.39465	84.62448	57.47708	41.67794
5710	10.51840	7.76819	7.18395	29.30428	32.06044	43.18561	44.24883	31.65737	19.57471	27.28722	24.38421	43.77377	17.16805	17.46133	15.53249	76.61312	53.00244	41.41005
5880	11.90217	10.77220	9.93074	45.81142	44.11100	39.84872	48.33988	34.85578	21.43391	21.66371	15.01388	16.35245	19.02669	14.56998	15.16176	67.88472	51.23222	45.97353
6040	9.72994	12.28833	8.93969	28.62619	35.31787	33.34697	43.61720	32.21818	21.72347	27.09337	26.88645	20.87841	18.01361	17.00085	12.75169	63.74273	44.59562	33.59557
6200	11.83607	9.29136	9.44082	34.40364	28.59498	33.27952	46.15345	30.68210	19.77272	35.17085	35.26123	40.52506	16.68139	13.79368	11.97806	68.01717	41.11916	30.09982
6370	10.39051	10.00981	7.98190	31.69322	35.65353	37.80549	43.44811	34.61343	19.70224	36.00003	32.06206	39.77639	23.14627	17.26020	15.53081	64.37074	46.91533	39.95349
6530	10.73413	9.85891	10.06774	34.74481	33.86995	29.15973	44.08756	30.55664	21.86516	17.04767	26.92040	19.26495	15.98446	12.61598	12.46900	54.06216	50.55849	37.27202	29.38	6.2	0.00	7.64	0.01270	0.01290	0.01641	0.00783	0.00582	0.00639	0.00468	0.01267	0.01684	0.00678	0.00691	0.00881	0.01490	0.01095	0.01196	0.00220	0.00623	0.00872
6690	10.04017	10.35310	7.30058	35.31311	34.64392	41.76476	45.06554	31.50870	19.81278	24.00781	21.63805	16.42397	20.41660	17.17868	17.35531	56.28122	40.49348	27.34710
6850	10.40687	8.99874	7.79911	34.31785	28.89158	23.31394	43.71622	31.12546	19.61134	19.17200	14.50952	33.68044	18.62599	16.60446	12.98879	65.54775	51.36801	37.69689
7020	7.81691	8.38551	6.77802	27.50813	36.20947	31.27749	42.81503	30.20856	18.23610	21.10892	53.25689	21.86838	19.99443	14.56432	14.75357	61.21911	45.02979	36.44243
7180	10.07953	9.13244	7.63467	29.84051	26.37809	41.85977	44.57744	31.69432	17.69099	31.09044	18.19998	22.42842	14.86877	11.95292	10.01318	56.82132	45.29830	33.94064
7340	9.55707	9.33683	7.22603	33.12266	32.96730	32.40929	44.73684	31.64433	22.00469	28.95156	20.13894	19.57540	19.77082	15.18946	15.85692	62.61251	51.08302	39.14814
7510	9.48542	9.41952	8.05248	35.50731	51.76907	33.01477	43.77625	33.98349	21.67378	26.56213	27.50327	21.85424	16.33811	13.79627	13.06854	53.18517	41.82521	35.51544
7670	8.76705	7.54134	7.03182	35.30939	31.22185	24.32536	44.91312	30.29759	19.02833	27.07183	20.00438	15.35211	20.67359	19.61906	14.99391	67.18521	57.30387	42.53572
7840	12.68448	13.43555	9.57327	40.46654	44.72979	43.98331	45.86233	35.24549	21.94782	23.95132	23.76002	30.85225	18.71640	14.38746	15.05952	57.80384	40.41406	34.99327
8000	9.61312	8.52912	8.64010	34.68464	24.87615	27.63064	46.05982	32.45790	22.12533	36.02229	22.20573	19.43009	18.57744	18.45983	14.70649	62.69048	81.25115	47.71331
8160	8.64534	8.43450	5.99905	37.03998	27.82078	27.95382	42.85043	32.31702	19.56930	20.12844	15.91221	13.89183	14.13996	12.26444	16.39805	55.62268	37.42048	25.14735	29.32	6.1	0.00	7.49	0.01270	0.01290	0.01640	0.00783	0.00582	0.00639	0.00468	0.01267	0.01684	0.00678	0.00691	0.00881	0.01490	0.01095	0.01196	0.00220	0.00623	0.00872
8330	10.95820	8.89862	10.39540	26.11376	23.31387	26.55552	47.60785	32.66223	21.16055	17.62460	16.00086	16.24508	18.32301	16.60102	14.05376	60.51766	54.72982	35.48884
8490	9.69752	9.77465	7.77749	28.85055	27.32576	20.30454	48.06516	36.16047	22.11617	39.83515	30.11831	22.64161	18.49095	14.17936	16.13213	78.90270	50.56743	39.45693
8650	10.05100	7.32633	6.56457	31.76233	26.52618	25.97295	41.78636	30.43927	19.63235	25.69256	38.33390	29.66980	16.42793	15.99801	13.18659	61.05133	49.55861	35.81163
8820	9.28679	11.03742	8.16002	42.19252	37.44627	31.65559	48.24610	34.35992	24.33948	34.47360	31.02697	30.99163	20.69716	15.07206	17.70899	57.76762	44.29294	48.19630
8980	9.83010	9.23304	8.06804	45.36883	26.87616	22.64870	45.27628	32.20390	19.70874	16.82830	20.52818	22.57650	16.77750	16.75969	12.33417	73.52099	50.65271	36.12366
9140	9.84081	8.26147	6.13767	35.37129	34.77462	33.85572	44.85492	30.60125	23.02352	24.63871	32.22136	40.58599	15.39505	19.20404	14.99479	60.59671	51.52802	34.77185
9310	15.52563	12.90254	10.84508	30.74484	28.20737	26.64316	43.75508	32.99426	20.78702	16.92141	13.51898	18.52567	18.98156	23.36704	15.44192	50.66419	44.38295	31.93710
9470	9.65098	10.20759	11.28952	30.73200	25.74630	24.00777	46.28593	33.53649	22.88569	20.51218	16.48283	15.18974	19.87937	15.29376	11.89079	54.76303	40.44077	27.56081
9630	10.03752	10.20982	10.94034	40.56549	22.37616	24.61692	44.54080	31.71939	20.22637	21.91603	26.05756	24.31902	17.37749	15.88664	13.67124	83.15736	47.08555	33.42795
9800	8.22968	8.49963	7.57860	29.68494	26.53103	20.18925	43.73339	29.74526	17.97134	22.06269	15.12208	23.91248	16.34163	14.19952	12.07166	53.63490	36.63058	29.77968	29.32	6.2	0.00	7.63	0.01270	0.01290	0.01640	0.00783	0.00582	0.00639	0.00468	0.01267	0.01684	0.00678	0.00691	0.00881	0.01490	0.01095	0.01196	0.00220	0.00623	0.00872
9960	12.24884	11.54218	10.34616	32.50091	37.79755	30.23587	46.63689	35.31600	21.70432	27.73882	27.14192	30.63999	19.31009	15.89870	14.94233	66.02893	47.97737	40.27875
10120	11.32172	10.55831	8.09886	33.56257	29.29598	39.87900	43.77891	30.48627	20.86824	18.84568	22.33451	21.95052	17.19527	17.47409	13.95752	58.37298	47.65038	32.72280
10290	10.30646	10.08595	6.06665	29.88272	27.06200	24.40973	44.49769	31.42715	19.84403	17.12047	18.44198	16.62690	18.33638	16.15501	12.58265	53.23174	38.48234	31.71737
10450	10.72335	9.25965	9.55940	30.28204	24.36976	24.63911	46.74679	34.07329	22.19437	22.98325	25.60235	18.87887	19.20611	18.58133	14.25786	65.16565	58.75042	35.95522
10610	10.96947	11.62457	7.77436	29.47798	28.80638	33.44369	45.06662	32.19544	19.58932	29.40078	25.43412	29.74548	16.09354	13.40656	13.28188	70.00195	51.84189	45.02955
10780	12.22159	11.13239	8.49460	33.00571	27.96867	32.59155	42.58629	30.38241	17.69061	19.38177	53.36238	25.19050	18.40794	14.49986	14.48570	69.88074	57.12157	55.27252
10940	9.87514	8.90390	6.68733	41.80025	37.53190	27.74460	43.05558	32.04741	21.56070	33.64768	24.34808	25.71195	19.20324	13.24387	15.61133	53.20897	40.27071	25.55664
11110	11.47761	7.02846	5.61026	23.86263	24.65435	24.81317	42.29414	29.27903	19.23568	26.58594	43.88528	49.13180	15.96314	13.37952	10.58092	65.86633	55.93336	39.22946
11270	7.43202	6.31710	5.37338	31.91176	31.94425	34.44116	45.22566	30.18328	18.29847	30.80525	17.38732	16.82035	15.78893	13.25695	13.49129	52.93970	43.23140	37.75498
11430	7.04709	8.42102	8.99995	46.05312	59.63888	24.82491	48.10788	35.19258	19.87314	18.58012	16.20789	14.93899	16.64801	16.86237	14.34658	60.42606	49.47032	39.91933	29.38	6.0	0.00	7.56	0.01270	0.01290	0.01640	0.00783	0.00582	0.00639	0.00468	0.01267	0.01684	0.00678	0.00691	0.00881	0.01490	0.01095	0.01197	0.00220	0.00623	0.00872
11600	10.24639	10.83135	8.31928	38.08969	25.86824	21.05689	45.02360	29.67327	19.50674	22.47357	20.24170	19.91310	15.54135	13.39347	11.58251	72.37777	54.14827	36.38814
11760	8.98192	8.75171	8.15141	30.93622	31.37825	35.59608	43.68855	34.28754	20.44510	36.78620	35.08588	41.53773	19.09255	15.45239	16.78317	54.77434	45.81553	27.38286
11920	13.48421	9.57514	8.05805	35.97163	36.25912	33.48819	43.19453	31.01743	21.14024	29.59389	23.93809	25.92199	17.90127	15.13805	13.55924	59.79140	50.61107	38.08604
12090	7.27522	6.56831	3.89356	33.30555	32.66104	18.71091	42.80789	29.50976	21.80907	17.75577	21.03958	12.83007	17.30880	15.51734	13.90928	52.43007	42.25042	40.08019
12250	8.68632	7.90423	6.22548	56.00595	31.49174	38.42915	42.96984	29.90376	16.83524	27.89865	28.56827	26.57620	13.23310	11.21536	10.47858	61.59999	38.74609	33.10948
12410	7.88689	8.73850	6.19257	39.13304	34.46810	25.69096	43.50397	31.82243	20.12861	22.61890	22.98559	20.85716	16.89064	15.71051	14.70817	53.10448	45.62500	27.57772
12580	10.66328	9.46343	6.08378	33.15811	39.63584	24.29861	43.23248	30.02932	17.30018	16.39345	26.42470	28.52621	16.08576	19.66769	16.67862	76.85354	61.55059	38.25984
12740	10.45769	8.99476	6.09691	47.60437	45.20874	30.89331	43.46499	31.36600	18.23856	32.48613	23.00644	28.07597	17.60177	15.28588	12.51651	65.47211	44.27259	32.30635
12900	6.61854	6.03377	5.91095	39.89071	32.69947	40.61451	41.43435	28.47474	16.99246	35.31945	32.27624	38.38371	13.65731	13.40188	11.48469	69.68301	58.41192	47.32208
13070	7.81471	8.25866	6.01340	48.00304	33.86260	56.70759	42.88014	32.11113	23.19686	60.33770	38.02956	41.08404	18.68640	17.18202	16.11744	76.22806	52.64952	32.94976	29.38	6.0	0.00	6.66	0.01270	0.01290	0.01640	0.00783	0.00582	0.00639	0.00468	0.01267	0.01684	0.00678	0.00691	0.00881	0.01490	0.01095	0.01196	0.00220	0.00623	0.00872
13230	10.78095	7.89032	8.83849	26.83636	25.18384	26.94398	45.92407	32.34737	20.66434	17.77099	16.85983	20.96705	16.42766	13.81263	10.67848	60.87243	41.28310	28.31622
13390	6.06506	6.49967	5.78338	28.17095	23.75570	23.87967	43.15413	32.30737	24.41073	23.20349	29.57377	28.84622	20.63178	15.63449	16.09698	55.49063	43.43198	25.82684
13560	12.69548	12.21974	10.58116	35.84341	26.41270	25.42298	45.19366	32.75141	19.25079	23.64378	25.71398	27.74974	15.02514	14.49253	11.00765	56.59728	41.68666	32.84220
13720	10.35547	10.84210	10.73340	38.53947	33.03237	28.01519	45.04755	32.05844	22.47090	30.40269	21.77056	24.20025	20.87893	14.89041	12.93988	61.97510	49.28550	45.86677
13880	10.85411	10.12952	8.66596	28.25439	31.57510	22.54563	43.93486	32.43938	18.75170	23.52638	19.12046	21.84548	14.44013	11.48306	10.11642	66.56283	51.81620	36.48007
14040	9.21294	5.25120	6.20694	21.06344	20.48362	19.46215	44.20735	29.31731	25.33063	22.88420	13.13897	11.14902	21.69752	22.41102	20.35547	63.44401	45.29390	35.52784
14210	13.68590	14.10196	10.64356	27.96519	30.20533	25.96378	45.45137	32.43460	20.03235	22.27972	27.98981	25.14667	17.00675	13.09248	13.15126	54.95296	49.79451	42.14452
14370	8.90977	7.24686	10.25000	44.12758	32.64418	40.48176	45.46648	31.33465	21.97341	28.05287	27.42537	34.48714	18.95558	15.55026	13.39274	72.90672	67.70649	63.53763
14540	6.41810	9.78123	4.75963	43.13604	48.78670	44.05735	41.71752	31.73279	17.15059	34.68566	32.73947	37.33408	16.31384	16.18797	16.33798	69.56532	42.63727	30.25340
14700	9.87270	7.72090	6.54549	23.37020	21.94103	18.89275	41.31585	28.90767	16.96894	18.67823	17.97872	17.14457	17.48132	17.13724	15.82342	53.64553	46.61055	27.58761	29.43	6.0	0.00	7.55	0.01270	0.01290	0.01640	0.00783	0.00582	0.00639	0.00468	0.01267	0.01684	0.00678	0.00691	0.00881	0.01490	0.01095	0.01196	0.00220	0.00623	0.00872
14860	11.37971	10.50129	7.96695	26.35454	26.04594	23.72596	46.98646	33.14931	22.58143	42.14151	38.20312	35.05160	16.63239	13.89412	15.22247	73.52506	48.33084	42.07189
15030	9.59335	6.36848	8.50504	27.92803	35.80648	41.51610	46.56055	32.56275	20.72659	43.64352	36.56800	29.44184	16.18955	17.94646	13.59940	66.76852	52.89885	38.56993
15190	11.79829	11.96064	8.66454	42.03725	34.22616	26.81206	46.91879	33.39467	25.30130	26.97922	21.23932	24.67097	21.51119	17.32597	16.10867	61.54912	39.04037	31.00038
15350	9.99309	8.50939	7.30659	42.45928	24.61319	21.69284	47.23345	33.96646	22.60589	19.48700	17.96255	13.60781	16.86607	15.52898	12.30368	65.92295	50.54410	40.69274
15510	9.61074	8.44040	8.35886	39.98975	28.31031	23.87020	44.83381	29.66412	17.15590	24.15754	25.61535	23.25186	13.75681	12.36397	9.59189	52.00610	37.83173	31.02955
15680	6.02006	5.04875	4.27777	32.00321	31.91715	39.47550	41.79954	29.75999	21.48398	25.37125	20.90404	20.33375	21.07434	15.28627	15.41925	64.32754	41.08112	34.80867
15840	10.74675	9.22575	10.21061	32.45644	35.39436	16.84906	46.57261	32.07016	20.66890	14.17065	19.50625	32.90079	15.78031	15.82970	16.20245	70.54760	40.88571	36.12854
16000	8.40904	9.25244	8.06145	41.24314	28.67735	39.51473	46.14048	33.55199	20.91487	21.06059	21.93287	14.10160	18.75664	16.02939	13.96481	50.26498	46.00575	35.72728
16170	11.04066	7.48114	12.66659	21.12842	22.77556	24.25826	44.78122	35.43615	20.93714	27.13803	23.83487	23.54774	18.77331	21.09440	14.16380	65.76209	45.68173	34.12081
16330	10.03231	12.83379	9.28385	32.94185	33.48339	30.85097	45.05869	32.62822	19.42995	30.12930	32.68154	35.04340	15.78330	14.09764	14.05172	79.72683	52.02799	39.65830	29.43	6.1	0.00	7.65	0.01270	0.01290	0.01640	0.00783	0.00582	0.00639	0.00468	0.01267	0.01684	0.00678	0.00691	0.00881	0.01490	0.01095	0.01196	0.00219	0.00623	0.00872
16490	9.99229	5.92848	5.78472	32.80175	57.32362	27.97789	45.65716	32.97448	18.64163	25.16088	24.30241	20.99338	17.80813	16.45910	11.75887	70.08114	41.99380	24.43093
16660	9.35374	9.35698	7.39582	25.74652	28.92072	30.55777	43.70627	30.66686	21.62156	17.48012	16.95556	15.74305	21.22417	14.75768	15.52944	52.97422	48.83388	35.98750
16820	11.61512	10.42267	8.02505	25.60235	22.39258	27.82221	45.23028	33.52900	19.41049	24.58810	21.97927	26.83500	18.70780	14.88979	14.28595	64.18508	46.49051	31.17025
16980	11.12083	9.28945	9.34903	37.02094	32.07209	25.25616	49.89071	32.07617	20.90484	28.21456	18.47552	19.33839	18.43665	14.77622	17.18460	68.38856	55.91094	35.34263
17150	10.22342	10.91832	9.25429	33.81473	27.61348	33.11151	46.64247	32.98247	19.03186	24.44976	27.08867	21.42046	19.01646	16.20214	16.48048	55.24277	36.52308	25.56402
17310	11.60011	9.91256	10.77238	28.41490	34.05235	23.35619	46.60850	32.60408	20.24498	20.88418	16.10220	15.48909	16.68657	16.08980	11.93361	56.77653	56.90797	35.21100
17470	8.92002	12.14164	7.26454	26.27921	22.49525	20.62338	45.47599	36.06341	22.12369	22.10003	15.77501	20.49505	18.67750	14.99822	17.66978	68.59835	49.73357	43.69788
17640	12.17148	15.19738	9.40279	36.60347	52.96296	33.13159	45.96811	33.13170	18.80501	38.04151	23.13104	26.88324	15.80211	12.87957	11.96480	74.23878	53.39780	47.67347
17800	6.69922	7.54234	12.92703	29.20973	30.15182	35.94446	44.08863	32.21120	22.59639	20.85177	15.56182	18.31530	19.39831	16.28733	16.14697	55.93535	43.86708	32.24804
17960	10.96885	8.47441	5.86328	34.11617	45.25879	34.12915	42.10286	30.33750	18.66789	18.90596	20.79134	33.24488	15.96557	14.96254	16.33714	64.72006	48.30593	43.05665	29.38	6.1	0.00	7.50	0.01270	0.01290	0.01640	0.00783	0.00582	0.00639	0.00468	0.01267	0.01684	0.00678	0.00691	0.00881	0.01490	0.01095	0.01196	0.00219	0.00623	0.00872
18130	10.11518	9.33342	9.66905	35.36310	24.39625	26.05889	42.37359	32.25685	19.21753	18.12174	34.73966	30.17112	16.46482	15.24137	12.90375	64.79226	41.20176	37.86169
18290	7.90068	8.86423	5.28138	22.72279	24.13363	26.52897	42.15084	31.65409	19.16132	23.77249	16.96309	26.41827	18.41837	15.38473	12.27712	62.58985	47.68527	29.11856
18450	9.31044	6.03544	5.74435	23.64008	32.38283	23.86398	42.71731	28.84975	19.53934	25.43937	23.49812	33.44446	17.46063	14.31618	11.45740	63.60907	49.27210	29.56994
18620	8.37078	6.93475	6.95658	31.54346	22.46632	22.26222	44.56980	31.29153	19.50482	26.27382	22.42680	20.23703	16.78674	15.76858	15.04429	61.06497	46.07966	27.42310
18780	12.23591	10.20649	8.16214	25.79689	27.21844	33.35034	44.81988	30.97845	19.88729	32.23043	22.69468	21.42777	16.51524	15.62121	12.28434	62.82516	53.22249	49.36352
18940	8.15623	8.64749	5.66465	40.85517	35.74972	32.87565	41.14653	28.36628	16.61307	32.76334	29.89244	21.27303	14.16406	11.41618	10.41805	58.61302	41.01721	43.22482
19110	8.51239	6.21130	7.35514	38.98997	38.11754	38.67473	44.71910	34.14505	20.49708	45.21860	41.76551	57.48223	17.98491	20.17122	17.68466	67.21267	52.71351	44.55052
19270	11.53323	9.08493	10.38392	30.40360	27.00109	26.07776	50.14178	33.58169	22.12704	17.63155	14.49162	15.54547	16.91605	13.61266	13.14732	68.31769	57.95633	42.85814
19430	10.03802	10.51178	7.50301	32.23832	30.93326	26.31348	42.98688	33.39555	21.84616	25.90068	19.21768	19.25469	23.43920	18.59854	17.20622	61.78943	56.90061	28.20365
19600	10.44579	8.92516	7.74280	31.99105	31.14392	28.18786	42.90795	32.15282	22.67704	30.73138	28.47260	29.29040	16.97981	14.39323	17.08052	58.26750	42.84694	33.41082	29.43	6.1	0.00	7.53	0.01270	0.01290	0.01640	0.00783	0.00582	0.00639	0.00468	0.01267	0.01684	0.00678	0.00691	0.00881	0.01490	0.01095	0.01196	0.00219	0.00623	0.00872
19760	10.54186	10.92241	6.59349	36.32754	39.26004	31.37654	46.03968	33.02220	22.13000	16.53170	19.20060	20.15574	15.56157	12.86295	11.48785	52.46680	36.37533	26.00933
19920	8.30007	10.91578	7.27121	30.16533	20.49621	22.50768	44.34785	34.07672	19.86474	21.70397	16.12342	17.68204	18.69822	14.21626	12.59160	58.48366	45.50869	43.04881
20090	8.97802	9.13559	8.48578	28.93435	40.55372	31.61243	45.39888	31.63241	19.16221	17.55244	13.01237	19.78330	16.30967	13.70674	12.72641	61.38622	50.54526	36.54250
20250	8.35242	7.91668	6.70541	35.83337	46.92248	30.95869	43.31457	34.90173	19.18145	31.57811	31.42347	30.87289	17.36607	16.27623	15.09325	84.10748	47.85941	37.72702
20410	7.83031	7.55559	8.23345	35.96672	27.27524	26.58183	42.83456	29.32931	23.34893	34.56905	30.80454	34.48882	17.02014	14.80718	14.29118	73.28942	58.35786	42.10731
20580	9.16553	8.66316	5.77458	34.74496	33.61994	30.57469	43.37578	33.10707	21.40920	19.76065	24.97891	21.36812	18.07700	16.08193	16.47684	61.78943	47.28252	40.56237
20740	12.72093	10.18007	11.82489	33.76289	32.16035	31.55906	47.07371	31.84725	22.41105	18.58096	26.73967	22.50237	17.68545	17.30049	14.57662	57.11626	42.58412	27.04130
20900	9.02032	11.02801	6.45887	29.54837	24.61734	23.45799	43.17604	33.07622	22.01118	38.47650	21.27826	15.18781	20.51122	16.59265	17.40065	56.13466	50.60800	31.95330
21070	11.56432	9.47969	9.48145	32.40394	28.74652	27.99651	46.74401	32.70999	21.82260	31.00817	30.54753	25.77708	15.90730	12.16766	10.87670	58.98442	45.18712	32.18086
21230	6.83514	9.78826	9.13387	29.67058	33.97862	33.01973	45.25529	32.95445	21.68506	42.24879	22.31620	23.22194	18.41945	14.87330	15.04486	60.14341	43.31786	48.10381	29.43	6.1	0.00	7.51	0.01270	0.01290	0.01640	0.00783	0.00582	0.00639	0.00468	0.01267	0.01684	0.00678	0.00691	0.00881	0.01490	0.01095	0.01196	0.00219	0.00623	0.00872
21390	9.03795	7.75260	8.52513	43.70401	40.35674	26.52556	43.59354	31.17406	18.66179	22.68966	18.61049	20.50788	15.23333	18.23206	13.45520	55.01091	42.09768	31.60484
21560	12.35159	10.10364	11.81119	25.95873	25.47976	25.50096	45.16257	31.10406	19.08745	25.07347	20.16667	12.81283	18.91725	11.88200	9.99970	59.20274	48.10327	36.45628
21720	7.42206	7.49652	6.22165	31.03079	25.60555	22.83158	42.53958	30.86285	17.53404	20.24793	19.67032	23.55761	15.88874	13.68362	12.72776	58.95716	40.63787	30.62608
21880	10.45715	6.88943	6.70064	27.35744	23.29080	20.98685	46.65979	32.00072	23.45212	41.47337	28.25518	38.95586	19.61761	16.91161	15.76997	73.17679	46.74842	28.96734
22050	10.75201	10.73160	5.96697	31.50269	27.38028	28.32112	43.88458	31.42335	19.38894	21.86141	18.09470	25.59739	16.30182	13.87625	13.64891	65.57030	55.72332	35.00263
22210	10.61787	6.97111	5.97168	27.87687	26.91808	26.18852	44.64754	31.88258	20.00674	28.19028	23.16187	21.33773	15.38421	12.07278	11.43558	54.11660	42.83509	28.46527
22380	9.87997	9.31531	7.70561	25.55617	29.27968	36.04202	45.26587	31.40536	21.25871	20.91074	33.74459	23.77387	21.61584	15.44349	15.25133	71.77189	71.04570	50.21781
22540	10.95391	9.61611	7.43736	37.85401	38.75390	37.83195	45.12907	32.76118	21.55448	31.00553	32.86837	18.94896	17.32888	15.39848	13.34784	52.29200	54.86704	27.20293
22700	7.89925	9.44998	9.03436	31.00417	36.76961	33.27864	45.50608	31.00343	24.04886	42.65866	30.86305	31.32177	17.62370	13.83339	14.28464	63.78196	40.37612	30.49651
22870	8.43512	7.19511	6.33411	25.51943	31.14690	24.47960	42.36390	32.10587	18.90982	21.55577	22.16553	21.85414	17.96570	17.71868	13.68208	68.24974	51.96577	28.88912	29.43	6.0	0.00	7.52	0.01270	0.01290	0.01640	0.00783	0.00582	0.00639	0.00468	0.01267	0.01684	0.00678	0.00691	0.00881	0.01490	0.01095	0.01196	0.00219	0.00623	0.00872
23030	11.44529	11.01795	8.77326	38.14840	35.13613	35.92981	43.43232	31.12867	19.20215	29.59268	23.29858	23.05112	15.80099	13.63092	11.54046	58.38190	52.91910	42.97621
23190	6.49184	7.26687	7.53933	29.42924	25.12780	18.33437	43.65356	31.98593	20.91798	20.65253	17.46943	17.98230	18.51618	18.28659	17.40370	55.09380	41.65546	34.50971
23360	11.19587	10.05330	9.25014	27.34806	36.02046	24.70143	43.71327	32.20952	22.12598	32.26173	31.40391	24.73375	14.17101	13.95547	13.02458	56.29914	40.36775	56.71842
23520	9.83075	8.68105	5.84519	37.71869	31.96597	45.02622	42.67474	33.66721	20.53491	54.28390	29.62589	34.00303	23.12208	16.63458	13.64586	60.11393	42.73149	27.04747
23680	11.19807	9.44397	8.89627	32.03152	38.52580	30.62671	45.56848	31.96045	21.13514	23.82254	20.35760	19.50302	15.85606	14.63434	10.86308	49.61344	40.64950	31.99009
23850	7.47138	8.86905	7.02637	43.05326	43.06331	35.28516	45.67832	32.37981	22.80919	18.86084	23.57505	27.33914	21.73151	15.51479	14.02701	84.27609	60.12286	40.73729
24010	10.62637	8.90397	6.54812	39.39623	33.95462	32.69198	44.75277	31.52627	19.15099	21.19626	17.01216	18.05347	15.31330	12.11950	11.10523	59.27285	51.29135	42.35326
24170	8.78249	7.72513	8.14109	35.17629	26.32373	27.94022	43.21759	30.56934	20.84139	32.25887	22.99828	20.37913	17.85770	14.91556	11.71895	63.06668	40.67954	27.02227
24340	8.43399	8.00555	7.71797	29.45123	27.28124	22.03345	42.89471	30.54772	18.65095	30.35591	26.71720	33.67748	16.91152	15.64434	12.41354	58.91762	44.93479	39.34056
24500	12.13856	10.09964	9.56317	43.40174	32.95020	37.74845	45.26002	33.67474	20.84339	28.06411	15.99792	24.37976	16.19669	13.59980	13.54045	53.30227	38.55356	36.03699	29.43	6.0	0.00	7.62	0.01270	0.01290	0.01640	0.00783	0.00582	0.00639	0.00468	0.01267	0.01684	0.00678	0.00691	0.00881	0.01490	0.01095	0.01196	0.00220	0.00623	0.00872
24660	6.42928	7.59162	7.75175	25.63663	24.14170	19.54039	45.73299	35.49755	20.05847	15.11979	20.94122	17.31166	18.15517	15.09879	13.37870	53.21846	36.56888	25.36993
24830	11.52974	9.90267	10.07804	24.28070	20.30022	18.25712	44.61781	30.83977	18.92826	19.08558	12.72489	16.76675	16.35150	13.62278	11.65268	54.71329	39.86561	30.76095
24990	8.69447	8.26716	6.00838	26.55306	21.57826	17.61149	43.61641	31.27999	19.94893	14.75381	35.59828	23.62846	17.90199	18.72795	15.80367	53.13535	41.21778	28.24890
25150	10.40738	8.65821	8.44255	34.24612	23.88952	29.16254	46.57144	33.14087	22.95436	25.28292	29.23715	23.75277	17.00235	15.55729	11.21612	55.14540	49.32193	42.73342
25320	7.15069	8.58627	7.67912	37.87393	33.65685	33.23649	43.23022	29.96300	18.40043	48.80038	35.32022	32.60183	15.87272	15.39903	13.91832	69.07295	55.74189	57.55960
25480	11.78039	9.91527	10.92228	32.93873	34.51248	43.22606	44.30287	33.28144	18.95595	40.78058	33.43738	29.62781	16.40274	13.92514	11.54861	73.12760	50.94858	51.04011
25640	6.56938	5.08671	3.82673	35.07120	25.11839	19.79639	44.02560	30.54774	18.88482	24.86149	22.36154	25.77987	19.20810	14.40760	15.40723	56.99994	38.82290	27.35019
25810	11.75771	10.62669	10.09779	23.08418	26.15059	27.07558	44.78009	33.04619	19.04614	29.94497	27.21193	17.49213	14.93793	16.36335	11.99891	65.42137	52.86931	33.89233
25970	9.04543	8.52316	5.19751	45.49707	35.48099	30.41411	44.57616	31.14917	22.94856	29.12206	13.12653	11.92433	21.28283	15.07917	17.06832	61.65357	53.38908	36.37221
26130	10.21517	11.75995	10.20453	26.43994	20.24205	22.21287	44.08045	36.39938	21.35872	16.99830	27.99029	25.11487	19.67584	16.01051	14.24291	70.29660	52.59909	44.20765	29.43	6.0	0.00	7.52	0.01270	0.01290	0.01640	0.00783	0.00582	0.00639	0.00468	0.01267	0.01683	0.00678	0.00691	0.00881	0.01490	0.01095	0.01196	0.00220	0.00623	0.00872
26300	12.29935	9.72722	9.10040	33.98414	24.27734	38.28912	47.28525	30.12951	18.75887	32.34212	28.81295	26.53950	14.63399	16.31265	13.36499	55.03968	45.69491	28.95074
26460	10.02590	10.37781	6.89303	32.28878	30.65273	26.59426	44.40778	32.47317	19.34154	18.11932	18.46967	20.74403	20.22661	16.40022	17.45920	51.27740	39.30649	36.16076
26620	9.92121	9.11535	10.58373	29.55643	30.20759	23.73820	46.10915	29.63467	21.45440	17.11184	13.19884	15.83171	17.00535	14.78402	12.77598	59.81094	37.18809	26.11048
26790	7.88512	7.40120	4.93179	30.34885	32.77799	24.26598	44.11063	33.67540	18.90670	14.87610	13.98340	22.29774	16.32809	14.30285	14.91718	57.14902	46.47889	50.28140
26950	9.76724	9.51745	8.51192	33.80226	32.83672	25.59575	50.12581	35.24879	23.97282	15.61922	16.92431	19.49628	18.22096	18.30743	15.26476	63.83631	41.74934	40.98202
27110	9.15190	8.54705	8.25663	32.47796	24.73558	24.03014	42.29812	28.85711	17.22328	19.16334	21.06993	22.04625	15.63164	14.07313	14.98879	69.57048	58.71262	35.54604
27280	11.80148	10.14745	10.74770	30.43131	35.27538	22.55184	47.63644	32.34483	21.43900	15.05349	15.59287	14.61234	18.81532	13.78953	11.98804	55.98368	46.25831	33.65714
27440	8.83517	10.12173	8.47715	36.85701	29.28474	32.43011	44.84125	31.93162	22.80037	21.30391	21.66122	22.89594	20.28291	16.73175	17.84252	72.48628	49.37948	49.14242
27600	12.81265	10.75554	8.15580	39.94369	30.48081	22.72149	43.98673	29.68477	17.96234	27.94284	22.78470	41.43923	14.76029	12.47612	10.69235	75.43279	49.12769	38.80755
27770	5.38074	5.36593	4.57539	29.39064	26.09310	23.31420	43.60457	31.28255	19.58403	19.72338	19.52122	17.77438	20.64190	16.41177	16.30771	58.13579	49.78455	41.91285	29.43	6.0	0.00	7.50	0.01270	0.01290	0.01640	0.00783	0.00582	0.00639	0.00468	0.01267	0.01684	0.00678	0.00691	0.00881	0.01490	0.01095	0.01196	0.00220	0.00623	0.00872
27930	13.50212	13.00731	9.49454	25.63541	28.29326	27.72189	46.03497	35.66023	20.42803	17.79338	22.69165	18.91695	17.46172	15.81245	13.87342	59.68971	71.77552	52.56114
28090	15.02269	11.32353	10.27895	35.59097	27.36856	27.36280	45.85352	31.74024	20.09387	18.26535	22.99603	18.94290	20.88172	15.72258	15.20911	68.11930	49.92202	31.76522
28260	10.96018	10.07340	8.29999	36.24201	41.39907	31.79710	44.47028	31.73541	19.98071	17.80767	13.80362	12.93520	16.08147	14.25652	12.80507	65.31853	50.81595	36.11877
28420	10.95232	7.02872	7.50738	35.43676	32.42015	30.77719	44.81476	31.66784	20.47787	30.54381	22.12781	18.79609	17.77286	16.14948	11.70075	64.21163	56.49957	34.97223
28580	7.17905	6.81898	5.90258	29.48005	21.09962	24.84963	43.51166	30.88014	20.25646	24.30796	22.87234	26.49913	17.74663	13.23051	14.54699	60.16457	37.12606	25.87768
28750	12.49567	9.99043	10.37546	28.29644	26.10920	31.09076	49.01224	33.07617	20.77319	26.51216	25.69385	29.57319	18.90380	16.95626	13.82725	65.16701	58.50302	39.83922
28910	9.74410	8.27497	4.52518	52.61900	36.73377	36.71930	41.77119	29.47174	18.14919	38.53312	25.94866	30.75466	18.90019	15.39216	15.06655	58.08628	42.41938	27.69553
29070	11.12262	10.90074	9.27781	25.05133	21.94666	20.09497	43.78205	37.68958	19.63789	18.95703	22.74477	18.43834	19.65337	16.82865	15.28638	52.31876	43.48513	34.27540
29240	11.02777	8.00616	7.16982	49.18229	34.55571	32.10856	44.56665	30.49723	18.98678	22.39670	17.11448	20.54536	15.15147	16.07010	10.49292	69.60485	63.64562	63.58672
29400	8.08447	6.61270	4.82268	45.85212	37.40202	32.45240	41.22053	33.37581	20.59779	32.83062	24.24233	24.10434	15.96734	13.19231	10.69207	64.94368	46.15942	35.79509	29.43	6.0	0.00	7.88	0.01270	0.01290	0.01640	0.00783	0.00582	0.00639	0.00468	0.01267	0.01684	0.00678	0.00691	0.00881	0.01490	0.01095	0.01196	0.00220	0.00622	0.00871
29560	8.55849	8.54874	7.43339	29.94159	29.02734	27.08101	44.40895	30.72458	21.07276	20.00421	18.18813	13.96515	17.12951	15.23574	17.19891	58.96286	46.71196	30.04171
29730	9.61411	10.88118	8.36353	30.55544	23.42446	21.40700	43.87688	32.93673	19.16028	27.36361	17.96763	21.03759	16.17249	14.77083	15.06173	67.46733	44.62740	40.40459
29890	9.11056	7.52083	9.55243	40.76756	34.96079	28.44643	43.48630	30.94216	21.13467	24.71244	15.07998	14.88015	17.57178	15.47996	11.98952	55.87930	57.00596	35.18425
30050	7.14163	8.19426	5.61238	36.35028	34.85123	25.89708	43.22550	30.32569	21.48250	23.05808	33.46547	39.38055	18.15246	14.48288	17.29375	83.15980	78.06966	48.62571
30220	11.66321	8.57325	10.23271	36.95202	40.75465	22.69777	44.31411	32.95581	19.22421	18.73229	17.29339	15.90654	17.26067	17.43191	13.63515	64.07561	39.46369	26.96970
30380	11.07554	12.08219	10.51161	32.70823	44.44959	34.00618	50.14316	33.77566	19.49110	32.22167	20.38264	30.55403	16.59179	12.66572	12.49029	70.08467	43.53468	34.35224
30540	7.73383	7.76347	7.55116	27.42827	22.06899	25.51000	43.03215	31.42243	19.48047	20.79126	21.35876	23.14506	15.44771	16.15927	13.28418	55.80040	37.28302	28.54360
30710	11.14793	9.38338	8.57489	30.47424	33.12099	30.73239	45.58605	33.65746	22.49605	21.99512	13.47342	16.52987	19.25777	14.80636	14.50602	58.23527	41.62656	30.53158
30870	11.24438	11.51317	9.07077	47.19007	31.23800	32.78435	44.68499	31.32087	17.08071	24.90426	26.53104	32.40675	14.61879	17.22745	14.21928	67.43584	45.65684	45.72841
31030	11.89333	10.99666	11.36081	29.03265	18.10723	16.97041	46.28566	31.88354	22.32210	14.34228	23.01109	19.81104	18.57106	13.97690	14.19851	54.21601	40.28273	24.87986	29.49	6.0	0.00	7.55	0.01270	0.01290	0.01640	0.00783	0.00582	0.00639	0.00468	0.01267	0.01684	0.00678	0.00691	0.00881	0.01490	0.01095	0.01196	0.00220	0.00623	0.00872
31200	10.71983	13.35606	11.24064	26.00785	48.67963	46.73321	48.32369	36.29463	20.76493	34.93525	18.68018	23.18997	21.42978	17.51782	16.88328	74.68875	73.50190	43.10384
31360	13.98339	10.77179	7.28756	33.03000	49.41938	37.19808	43.07663	29.88277	19.08067	29.54317	24.77757	24.12477	15.65643	14.97672	14.18320	64.56094	60.93712	31.89456
31520	10.03466	9.77612	8.32011	36.02112	42.13365	32.25224	43.69437	30.63508	18.72527	25.91996	26.02874	29.39702	15.99351	13.52031	11.64324	59.43384	48.93397	50.50156
31690	11.43814	8.66264	9.03576	53.22516	47.27855	45.95376	44.96472	34.83605	24.05995	28.42972	23.84333	25.81230	20.62935	18.62537	14.38632	55.55971	42.65544	33.87055
31850	10.15674	11.18301	7.73522	30.94413	22.08217	22.59334	43.72156	30.33079	22.56126	22.42329	26.99370	18.02921	21.94602	17.84517	15.15269	62.08718	39.56906	29.67219
32010	11.92601	9.47858	11.37956	27.83014	30.12536	33.51702	47.07866	33.18574	20.36413	19.11261	16.47021	13.51274	15.77153	16.71510	15.02049	50.98510	38.93829	26.98462
32180	9.65736	12.34615	8.65730	30.07178	21.19293	23.85229	43.74336	31.53929	18.31039	20.52269	16.77279	15.49507	18.33170	14.16244	15.90392	55.11895	39.56772	26.77118
32340	10.97346	8.47974	10.57005	25.25343	19.86302	18.34486	45.27578	34.45297	21.38378	14.12024	15.41082	13.32107	19.42845	18.45557	13.05868	54.31711	53.43201	37.84182
32500	14.12286	14.56749	10.80191	31.36482	29.12138	33.64600	48.10465	33.55827	25.73246	21.18571	22.25973	31.52450	20.41984	13.86701	13.98550	76.85546	58.33940	43.67163
32670	8.81433	7.20609	7.56054	43.21445	42.47838	38.23929	45.46391	34.53660	20.54210	42.59106	22.59988	21.57028	16.77090	18.27347	16.98627	53.02121	43.27700	29.32552	29.43	6.0	0.00	7.55	0.01270	0.01290	0.01639	0.00783	0.00582	0.00639	0.00468	0.01267	0.01684	0.00678	0.00691	0.00881	0.01490	0.01094	0.01196	0.00220	0.00623	0.00872
32830	11.61903	9.33498	7.92150	42.33342	41.14062	40.61611	43.08923	29.89637	19.32559	50.45572	37.49430	40.36507	15.91487	13.27084	13.17878	60.90430	43.02275	31.49477
32990	9.81309	8.37776	7.57629	36.61866	33.13671	31.83771	44.29713	34.37786	19.13378	17.96095	25.08938	22.53117	17.46992	15.80822	13.04611	69.37182	45.76356	27.38970
33160	11.92926	8.41444	10.58066	42.39913	39.82721	29.90810	44.96060	30.08529	20.15278	27.21503	28.14434	31.36129	16.91947	13.69109	12.33577	62.32650	46.62379	26.61140
33320	7.76549	7.39274	5.75521	33.51338	53.89718	35.96138	41.57038	30.13961	18.61245	26.65767	15.28235	16.47707	14.02700	13.33981	11.81086	62.92921	44.26342	32.17454
33480	7.66263	6.32602	4.78680	31.62238	27.19821	26.27582	45.23122	32.47325	20.95037	25.33466	22.79642	28.58532	16.20355	14.00218	14.43507	55.34797	46.34023	40.51354
33650	9.50075	8.92985	7.94705	45.98258	35.57300	33.45801	44.66914	29.64022	20.93525	27.12386	17.59341	23.37352	16.51609	13.06095	12.98762	63.15211	38.95099	29.36567
33810	9.99720	8.69198	8.49261	27.93059	24.24565	19.00454	46.71382	30.80371	19.95765	23.04242	31.51770	27.41637	16.59668	16.09430	14.15106	57.02021	42.90552	33.71980
33970	10.82118	10.44725	7.37973	27.31617	22.58823	23.43856	47.45264	32.58101	23.11790	27.45037	28.02225	26.60016	18.55428	15.98614	14.93148	67.59323	51.71298	37.68573
34140	7.79021	5.19403	5.19628	31.40454	25.08442	29.28891	41.20686	30.63226	19.60912	34.00375	18.86662	14.39169	17.03656	12.26069	11.41808	58.64344	39.27581	25.91565
34300	11.76791	13.03405	10.37480	28.57165	22.18881	22.00087	43.73936	34.00739	24.13181	36.78441	47.03078	52.10655	19.61213	15.23924	16.78652	74.68465	53.18617	38.71483	29.43	6.0	0.00	7.62	0.01270	0.01290	0.01640	0.00783	0.00582	0.00639	0.00468	0.01267	0.01684	0.00678	0.00691	0.00881	0.01490	0.01095	0.01196	0.00220	0.00622	0.00872
34460	9.40127	7.27829	5.76850	36.54526	38.03395	26.86359	42.12254	32.55889	18.11442	23.92264	22.13687	15.97020	17.00775	12.99359	11.98209	49.78162	38.29219	23.96169
34620	11.28034	12.50505	8.52783	21.45400	22.52610	22.37025	45.39058	32.96636	19.86509	20.15817	11.95555	15.89042	17.06275	12.64874	11.24474	57.07478	39.23492	26.42468
34790	8.97621	6.74166	5.92261	20.31563	19.74330	21.42887	44.10230	31.26232	18.85125	23.96376	48.30291	21.34805	15.24554	13.72965	12.20994	70.20621	55.50670	41.72388
34950	7.86743	8.01994	8.51502	55.26577	39.68087	39.73272	44.61295	28.81049	19.39516	47.12878	42.06530	51.20884	16.92277	12.06575	12.41374	64.36992	39.81406	26.31798
35120	10.64324	8.33155	9.59633	27.86034	31.81006	25.35839	46.76335	32.24641	20.82601	13.13218	14.96077	11.77939	16.86733	15.70540	12.02729	51.98887	47.43615	45.03464
35280	10.96675	10.79820	12.23079	34.82477	28.04122	23.09288	47.35899	33.18444	23.56947	23.48833	16.98417	17.95248	20.02849	15.11916	15.28555	54.38098	47.90233	41.30799
35440	14.53622	15.23001	11.56313	23.98953	23.27786	26.57864	45.18886	33.00656	19.18532	25.10896	27.89032	27.42014	15.99575	16.10856	15.32527	76.77104	47.83131	31.94068
35610	10.01780	8.45319	8.09946	34.26308	31.90920	32.95326	46.22682	30.73026	22.32184	30.72256	15.64971	15.02829	19.35885	15.92806	15.09186	52.75579	37.65006	42.54770
35770	7.91888	8.34742	6.38175	27.38029	41.14468	40.68435	41.42932	27.72258	18.17302	22.04944	16.77981	24.58163	16.95707	15.32572	14.07071	76.22616	58.85751	56.60374
35930	11.22436	11.17503	9.63830	49.18844	57.55740	38.18937	45.40962	32.94723	22.02418	16.06118	17.11696	12.82842	17.47267	13.55049	13.30993	49.35113	45.47962	36.80120	29.49	6.0	0.00	7.60	0.01270	0.01290	0.01640	0.00783	0.00582	0.00639	0.00468	0.01267	0.01683	0.00678	0.00691	0.00881	0.01490	0.01095	0.01196	0.00219	0.00622	0.00871
36100	11.31288	8.14645	6.28169	21.70227	23.88502	28.88705	44.06034	29.78479	18.67863	31.95777	20.75227	22.40939	15.45481	16.61970	13.30333	60.35790	47.75737	44.27401
36260	9.54627	9.39752	10.42231	53.16215	35.86903	40.70119	44.60654	34.94232	24.36587	27.17101	15.46209	15.57923	20.69124	16.77520	13.67881	52.89800	38.21448	33.58150
36420	9.87888	8.40670	4.48712	29.76831	18.54371	16.67532	40.82607	28.90265	18.15980	17.03279	21.56484	19.69483	14.49931	13.15207	10.64262	61.33428	47.76807	28.19999
36590	6.58760	7.08912	6.14150	37.96364	20.31193	17.73822	41.99252	30.46823	18.34331	14.03666	15.71311	19.50757	14.80476	12.62870	10.52864	53.20411	38.48390	24.47233
36750	6.29246	5.55301	4.71107	26.80705	40.50763	21.46924	45.06107	31.26187	18.51594	43.10120	26.89491	51.64739	20.56361	19.68934	15.67536	74.42445	72.13513	49.81128
36910	11.80609	8.62804	9.46506	32.74822	33.76755	27.13424	46.10845	31.62679	19.22964	54.56136	63.78933	49.54154	20.53074	18.04254	16.03486	77.17549	64.55227	46.10785
37080	7.93123	8.67846	6.08038	28.16737	26.19515	26.21271	43.88532	31.05760	21.71937	28.09915	27.27655	28.62898	23.18270	17.21321	15.39964	48.94187	33.77224	22.22901
37240	10.42640	7.92735	9.78766	19.69342	19.97312	42.92314	45.08810	31.29718	22.03818	42.82573	19.21620	17.69373	17.22098	18.89709	17.01107	59.48262	51.86562	53.17860
37400	12.71854	13.77263	10.59029	45.10449	52.60511	32.05354	46.99493	35.14920	20.65844	30.59403	15.26652	14.31641	19.07923	16.28434	16.38246	54.32618	38.37634	28.63453
37570	11.43504	8.44481	8.35705	26.07116	23.86356	28.58036	42.82226	29.38567	19.17362	28.92700	17.13284	14.65427	16.18206	16.55556	13.33259	58.72930	46.41089	39.86915	29.49	6.1	0.00	7.63	0.01270	0.01290	0.01640	0.00783	0.00582	0.00639	0.00468	0.01267	0.01683	0.00678	0.00691	0.00881	0.01490	0.01095	0.01196	0.00219	0.00622	0.00871
37730	11.19181	9.97310	6.20789	28.63045	24.54198	33.85549	43.26505	31.25026	19.23284	38.46953	33.96918	35.35800	16.51565	15.71439	14.06551	63.00374	54.19902	38.44661
37890	8.20299	7.56027	8.76685	28.18690	19.51448	17.94871	46.68787	31.84831	20.70925	18.09268	21.19936	11.16307	17.74726	17.74198	16.73932	48.52861	41.73475	31.48825
38060	9.83504	10.99433	8.00616	30.21534	41.79259	44.10332	41.68027	29.11208	17.24414	29.18626	23.14796	29.20698	14.24816	12.14555	11.92675	63.93464	47.85608	41.11411
38220	11.56953	9.98988	9.75475	44.08682	49.13482	27.66665	44.90300	34.45544	21.10639	14.14254	15.92322	16.92212	17.17009	15.64489	12.28089	64.98578	46.61998	33.99016
38380	8.53472	7.89672	4.73482	29.14886	24.31175	21.16067	41.97929	28.45294	20.41946	26.98889	25.68698	20.19841	15.68977	12.95423	13.02795	49.12061	38.58364	27.27887
38550	7.26022	6.97225	5.06594	27.30637	25.45318	25.34981	43.18557	31.01802	21.92757	22.24206	22.20342	19.60593	16.40194	13.69293	11.65900	49.31914	41.52946	27.68596
38710	7.43276	7.42173	5.10827	27.48689	25.23489	18.94424	41.50709	28.34279	17.51486	29.47492	17.07007	26.34825	15.68997	15.83562	15.36627	54.46173	42.90359	54.24360
38880	10.09468	8.67791	6.54011	31.63523	33.81052	29.72786	43.29110	34.33043	20.66287	20.93514	20.32740	15.27541	15.73369	14.70123	12.06555	55.47434	52.29998	25.73543
39040	9.45575	7.74258	5.40983	19.01073	17.65101	16.97395	43.97109	30.04101	19.05565	22.30532	17.76594	18.36726	17.19838	15.46858	14.64751	64.18157	43.38402	30.72648
39200	11.47231	8.11019	7.63445	23.17620	20.76031	21.26120	41.61438	31.62939	19.07276	26.30651	18.59270	13.49241	16.01053	13.77201	14.01994	53.59219	52.22960	40.55299	29.49	6.1	0.00	7.53	0.01270	0.01290	0.01640	0.00783	0.00582	0.00639	0.00468	0.01267	0.01683	0.00678	0.00691	0.00881	0.01490	0.01095	0.01196	0.00219	0.00622	0.00871
39370	6.38686	7.86756	8.38905	38.03605	39.42120	41.87242	47.47051	32.50625	24.76887	30.64361	20.52372	18.95650	20.47612	17.80201	16.79829	65.06267	52.23199	43.34650
39530	10.71808	8.88582	8.38283	36.93310	34.68147	40.14394	46.14642	32.05457	19.34709	28.65875	36.56684	39.48084	17.92413	13.64114	15.15647	73.51912	57.54544	48.34676
39690	13.58336	14.12843	10.83521	59.81916	51.26311	62.74934	48.20184	33.43967	23.95332	37.41855	27.19369	29.73999	20.09990	15.30278	16.24875	73.40417	56.26516	29.62942
39860	8.34317	10.85914	11.23774	25.80418	28.23771	19.68633	46.44944	32.99152	22.03431	21.41035	26.26227	21.03730	18.76110	16.17137	14.76859	73.01197	68.69137	53.24928
40020	11.14348	9.42471	7.24780	56.74719	43.61291	34.35927	41.95847	28.05986	16.54691	20.71098	19.27806	32.92378	14.07488	11.36611	10.32441	83.30816	45.78394	26.79887
40180	8.92224	7.81532	6.40349	25.66545	20.22595	18.68931	44.44425	32.97763	20.00599	17.26374	16.24006	21.08527	17.99341	19.07192	14.28252	62.22936	74.77961	44.09187
40350	10.05705	9.30996	8.91411	45.48607	31.75610	32.61326	44.06324	30.43108	19.38711	36.52494	27.58436	26.31240	17.19154	15.09459	14.41692	68.66849	52.52538	41.66558
40510	7.25623	5.90594	4.78225	21.97833	33.63081	24.35078	43.34042	28.53609	16.55196	19.40119	21.84041	18.24148	13.83295	12.23403	10.14044	58.54924	60.48206	43.28874
40670	5.65386	4.92316	4.00239	41.51438	45.98904	34.25839	42.58500	32.78042	19.63394	38.00693	30.22382	30.19582	15.81672	11.81506	11.61697	60.91744	51.98419	28.55489
40840	9.06655	9.45627	7.18364	20.68725	28.02783	29.33263	44.83311	34.46712	19.92416	13.63962	44.80818	29.65784	16.60073	17.92461	17.15368	69.09704	55.00525	59.56009	29.49	6.1	0.00	7.57	0.01270	0.01290	0.01640	0.00783	0.00582	0.00639	0.00468	0.01267	0.01683	0.00678	0.00691	0.00881	0.01490	0.01095	0.01197	0.00219	0.00622	0.00871
41000	13.01702	8.19484	10.77440	42.38274	37.48615	41.32378	44.51937	30.79164	18.18022	51.59046	63.06736	47.17215	17.84586	16.99257	14.56731	60.73084	47.50693	36.85235
41160	6.69166	6.81393	6.82916	25.11909	22.80610	20.27598	44.96183	33.45052	20.99450	17.99666	18.65913	27.65006	18.62723	15.84926	17.42986	92.08578	45.50266	38.19927
41320	9.20288	7.09119	8.20326	53.93460	51.85498	41.99018	44.34772	29.07041	17.41056	35.15620	37.73884	29.28474	16.19469	14.91484	13.75478	65.72170	60.46209	36.47099
41490	10.75781	7.71860	5.96096	25.06153	24.25320	18.40999	43.69279	30.67252	17.70562	15.76544	11.23117	10.45204	15.06895	12.46080	11.09700	46.95686	37.03212	40.92089
41650	10.14787	7.83206	6.21192	49.26018	37.11836	39.55506	43.99994	29.45388	18.34840	40.52423	47.87286	55.74517	15.31209	13.49413	10.05335	78.03935	76.35717	57.94008
41820	5.57327	5.40098	4.63981	61.82745	55.01637	17.06340	42.43658	31.61217	20.81316	11.27473	30.47665	39.37646	20.35039	19.40312	15.90192	59.08635	41.12813	33.40831
41980	12.00253	10.36276	10.13676	34.57270	37.06296	28.73937	45.98054	30.53535	18.94035	20.17166	19.42419	16.11447	15.65772	15.33419	12.82452	79.19448	40.95801	37.95226
42140	11.61972	9.45916	6.98600	22.58780	20.39965	22.72236	42.52322	30.37893	20.12869	16.70597	12.15726	12.06668	20.54561	15.16659	13.20094	59.91185	43.12697	33.80689
42310	8.65125	10.37575	8.73566	25.21682	23.10621	19.95471	44.52134	32.63899	20.93817	22.95739	15.93530	14.74825	19.07090	14.94614	13.69623	68.27662	58.91748	40.52462
42470	8.72908	10.15939	7.33944	28.68149	38.17420	29.40573	41.09583	29.63058	16.91871	30.95335	27.83759	42.51240	15.76799	14.66322	14.67613	60.76253	39.87827	38.57211	29.43	6.1	0.00	7.63	0.01270	0.01290	0.01640	0.00783	0.00582	0.00639	0.00468	0.01267	0.01683	0.00678	0.00691	0.00881	0.01490	0.01095	0.01196	0.00219	0.00622	0.00871
42630	11.40939	8.17143	11.82893	33.94669	19.40796	21.73483	47.63402	33.79823	23.69449	23.34660	20.86292	18.30475	18.61816	16.13441	18.10380	49.69062	35.28350	23.10738
42800	10.73757	10.93418	7.69162	21.19309	21.89022	17.61312	43.78299	28.78643	16.75358	16.42164	15.46767	18.70462	15.55819	14.72763	13.40809	48.73412	39.86855	30.00505
42960	11.55259	12.02817	10.99255	20.07026	18.86407	17.98979	45.63587	31.26537	20.25673	18.72565	19.30668	21.78141	14.61948	11.97369	11.76404	65.12894	46.95034	42.60881
43120	7.73092	8.44131	5.35195	36.83345	29.11473	22.56712	41.83981	27.90781	19.32425	25.58543	22.82245	23.69130	15.10113	12.69381	15.91710	70.97187	54.29309	58.46363
43290	10.75518	8.78067	9.53172	46.10084	33.17011	29.34730	41.65632	30.11742	20.77382	22.12474	17.18033	19.47695	16.82537	15.66036	11.70619	52.70903	40.95142	44.16161
43450	6.20715	6.53563	7.69402	25.06445	27.08829	23.11145	41.48631	30.04060	18.54552	15.94985	25.62978	13.47758	18.46272	14.31809	12.79110	50.74244	37.00510	26.68721
43610	10.20552	8.41121	8.45096	24.49793	20.72102	19.72055	44.47174	29.57250	17.75331	24.17997	16.92034	12.42935	13.67148	11.19857	9.98237	49.02457	37.20246	31.97968
43780	9.10577	7.51520	5.52397	34.45808	32.89251	23.83605	47.04946	30.03433	18.62218	15.49492	12.72813	16.45564	14.54021	14.11840	13.95891	64.49919	61.12523	49.51183
43940	7.64181	9.50620	7.02618	28.08805	27.89900	29.65757	45.25162	31.90410	20.24326	22.20337	19.60503	16.90970	18.02805	17.40313	12.60843	49.84124	37.31470	26.59438
44100	9.57418	10.15424	8.18268	26.19024	25.19628	25.49975	42.96148	31.76276	18.34184	28.21268	17.63586	16.20771	17.21257	16.20831	14.16930	51.48666	41.17657	34.91585	29.49	6.2	0.00	7.55	0.01270	0.01290	0.01640	0.00783	0.00582	0.00639	0.00468	0.01267	0.01683	0.00678	0.00691	0.00881	0.01490	0.01095	0.01196	0.00219	0.00622	0.00871
44270	12.50742	12.20540	10.99717	27.58870	21.48831	18.18565	47.41204	30.89179	22.16231	27.15726	40.07462	30.71217	18.05214	15.39086	13.09399	53.68619	38.74655	34.34441
44430	7.16054	7.74254	7.60589	29.40973	25.23669	29.79493	44.17959	30.39060	23.22890	30.01788	22.34333	25.54923	15.31901	13.16886	14.36254	50.12661	34.82804	29.69652
44590	11.97947	8.22749	9.27770	43.87981	27.09962	33.54013	44.36002	29.71618	17.67876	13.53246	13.73075	16.35773	15.37297	12.87238	10.84332	57.93784	50.31499	29.79569
44760	8.00534	10.07334	8.94903	22.83056	21.48545	19.01213	42.82599	31.97970	20.28914	20.30324	16.77728	28.59045	19.42348	15.06477	15.79450	71.10679	46.78539	44.83682
44920	12.19777	8.35654	9.34069	40.69259	37.46327	26.77539	44.60908	34.40393	20.97209	24.95801	20.26395	21.66293	22.69439	14.72798	12.28504	58.60517	45.02496	45.48125
45080	8.12627	8.16169	6.12021	43.87184	30.01899	32.32482	44.10002	32.78000	20.16575	40.65029	36.99688	45.85790	18.31847	12.92236	12.56248	80.85466	63.42953	46.74774
45240	6.91044	5.83095	4.86078	30.56537	44.20656	33.92877	40.32282	28.58486	16.04929	17.03421	15.05980	15.63105	13.25633	12.86041	11.99364	52.08572	42.19736	26.89447
45410	7.91993	8.54595	7.50750	21.32985	22.08886	22.96063	43.33551	30.51085	18.38614	21.94119	16.51080	15.09737	19.16902	15.68394	14.84007	52.11969	36.21571	28.57395
45570	9.28544	8.43200	7.09026	33.21834	29.90610	28.32700	43.81721	33.30849	21.20173	11.05326	10.28733	12.52522	17.90463	14.26162	11.46090	47.71499	39.06608	26.22240
45730	8.72152	8.49424	6.14326	23.15128	25.40999	32.72192	42.65952	30.78740	17.31525	21.53457	15.42985	17.55037	14.41211	14.12532	13.88123	70.32145	60.01454	41.93145	29.49	6.0	0.00	7.51	0.01270	0.01290	0.01639	0.00783	0.00582	0.00639	0.00468	0.01267	0.01683	0.00678	0.00691	0.00881	0.01490	0.01095	0.01196	0.00219	0.00622	0.00871
45900	10.82012	8.29464	9.03368	38.00714	29.07846	26.78555	44.87545	33.34543	22.49246	34.04244	32.43121	44.63493	20.20888	16.27340	13.99405	55.17849	38.93862	32.60671
46060	7.00112	7.20695	5.46077	41.31649	40.41806	29.39311	44.88973	30.61518	19.93793	17.62354	13.07835	13.58771	19.61279	18.64458	15.85034	56.72462	51.65970	44.34344
46220	11.47515	9.10725	9.90015	45.37669	36.25293	26.51011	44.33199	31.21074	19.60210	24.28185	22.46885	20.12782	15.42085	16.02564	14.60099	54.43081	44.18055	39.00021
46390	6.32892	8.31003	9.66020	42.09306	22.71045	29.52669	46.90460	32.20369	19.43688	18.50256	14.99272	26.06035	16.77457	13.56534	17.34495	51.84550	40.49098	29.00628
46550	11.50020	10.44202	9.64312	33.40427	34.71406	20.46990	45.79498	33.54223	19.53224	12.41626	15.37771	14.42910	15.67667	16.08636	11.62122	57.33626	39.44107	32.86543
46710	6.82485	5.70605	4.44017	39.49286	27.25062	20.35652	42.17029	28.06516	16.19819	16.37517	18.47758	17.74036	13.94200	14.61856	13.53436	70.57678	59.29206	31.03783
46880	8.29795	7.38327	6.69631	26.13431	27.08572	30.54276	46.67017	37.06625	18.58686	20.13291	16.84643	19.58987	21.93494	15.45484	18.96889	54.54293	38.74574	28.14898
47040	12.21709	10.11717	13.16081	32.16851	28.11143	30.16132	44.60201	32.25914	20.64210	38.40134	28.96463	19.33204	17.65667	13.21779	10.96854	62.56372	63.33462	39.97261
47200	6.04155	9.21888	7.71765	36.74387	44.93466	34.17198	45.38345	30.73532	20.12263	29.72801	26.33595	37.36369	16.21416	13.77678	12.82377	61.90867	51.05345	30.23710
47370	9.89485	9.10030	8.40679	26.93726	26.49070	29.69924	43.44844	30.05262	19.49714	26.87322	21.38419	23.04330	17.97008	15.22523	13.09420	64.36071	44.74960	29.84466	29.49	6.0	0.00	7.55	0.01270	0.01290	0.01639	0.00783	0.00582	0.00639	0.00468	0.01267	0.01683	0.00678	0.00691	0.00881	0.01490	0.01095	0.01196	0.00219	0.00622	0.00871
47530	10.48850	9.76105	8.42831	24.61370	19.62019	16.71915	43.51050	29.95279	18.09380	11.98795	25.23511	23.30543	15.34321	13.18723	10.74364	67.26845	58.29874	64.29626
47690	11.19089	8.59692	8.14540	58.31477	47.08726	43.37979	44.19116	32.11622	20.12449	26.69279	30.32000	25.60053	19.66115	16.17011	14.09834	73.86503	52.78682	29.15390
47860	8.76503	9.50775	6.46573	26.41170	24.62792	20.62150	45.05556	32.37566	19.25462	11.60971	10.48166	15.51760	15.43258	14.77221	13.08898	50.67291	38.88670	31.87436
48020	7.96659	7.16538	7.15146	23.69533	25.38694	29.75200	49.70013	31.33648	24.07411	23.95252	18.21888	23.85527	16.19666	15.31119	12.01632	59.46299	40.26135	29.87740
48180	10.94018	7.34316	7.69663	28.94774	38.52466	24.13102	46.02694	28.34818	17.71450	25.63890	31.89456	23.72630	15.67015	14.00986	15.42724	66.04600	46.95113	36.92974
48350	12.41734	8.94581	7.86956	46.61057	30.41766	32.40010	43.27672	35.83834	23.44943	42.86837	33.43387	34.48383	20.60931	16.75692	15.54612	64.04178	53.08152	51.92810
48510	9.08282	7.87936	5.36679	33.03133	26.86666	25.91011	43.49273	30.34868	22.83376	24.60830	20.28863	17.85689	16.93962	17.80541	14.63193	50.23505	40.14512	36.77384
48670	11.24473	11.10458	12.16955	26.70136	20.95997	20.81393	43.32025	34.96940	22.97511	33.93414	15.73374	13.50078	19.03762	18.70366	16.26017	66.99362	54.82444	41.38233
48840	11.26218	11.59299	7.32476	47.05903	36.15292	43.99253	47.65267	34.20343	21.81610	44.69208	45.26428	39.45069	18.57371	19.29306	16.90975	73.74598	83.47745	49.92461
49000	9.67986	11.54696	9.34848	33.72099	27.85494	18.02101	43.52638	33.41377	20.77375	16.81919	36.69462	32.13758	17.17273	16.67309	13.22207	62.73825	46.60691	33.30022	29.49	6.1	0.00	7.92	0.01270	0.01290	0.01639	0.00783	0.00582	0.00639	0.00468	0.01267	0.01683	0.00678	0.00691	0.00881	0.01490	0.01095	0.01196	0.00219	0.00623	0.00871
49160	9.80840	9.82448	11.41522	30.69822	28.09901	40.29782	45.27399	32.59572	21.47297	32.92483	23.70509	24.79421	17.01022	14.65002	13.41521	56.12681	45.34520	30.50653
49330	6.86623	6.42746	4.84151	21.75093	19.32745	20.49754	45.00189	34.37368	19.19313	19.51390	16.30558	12.65971	17.77596	18.86149	14.61343	51.65418	42.41752	27.51553
49490	12.22093	8.45455	8.46534	33.54857	26.04727	22.36291	45.86619	32.21450	19.50696	25.12221	14.70185	11.75056	15.52420	14.50621	12.22121	67.05214	43.03037	33.26137
49650	9.33489	8.79662	7.82354	36.41113	38.97830	44.27782	44.41644	32.13142	20.81615	26.54225	15.85413	21.49961	18.20889	16.48964	13.53334	77.76919	55.34936	31.51826
49820	9.77852	6.79669	7.48001	29.06435	35.50686	40.07024	43.00401	29.99457	17.27880	29.13468	22.57555	22.11461	14.61322	11.76623	9.67493	62.16448	48.66061	30.22115
49980	5.98938	7.86920	5.86535	26.39714	26.60260	23.88155	44.01749	30.61427	18.64183	32.14366	28.95209	20.23194	17.47117	13.93811	15.76568	69.55231	47.34831	44.76735
50140	12.14768	9.63184	10.43784	37.85150	33.84659	37.03272	45.96347	31.62724	17.65299	38.02849	24.92137	22.28202	17.20770	15.10199	12.63024	57.62606	51.15110	33.71208
50310	10.53449	11.07417	8.22858	26.42561	23.11055	21.34557	44.25035	30.42294	18.85957	17.82664	14.35760	23.45596	15.78619	14.42928	11.99023	51.03686	38.33366	31.98108
50470	9.85899	8.29242	8.53842	33.70025	43.45328	34.93128	44.28488	30.76488	21.03545	27.60164	19.62536	20.62541	19.59729	18.49483	13.63808	56.47845	40.39706	31.52265
50630	11.15293	10.55180	8.55215	24.15383	23.56163	24.08620	44.18074	31.86725	19.84461	16.05929	15.58162	18.92166	18.51674	12.14856	11.68326	57.36746	35.26938	32.03174	29.49	6.1	0.00	7.55	0.01270	0.01290	0.01639	0.00783	0.00582	0.00639	0.00468	0.01267	0.01683	0.00678	0.00691	0.00881	0.01490	0.01095	0.01197	0.00219	0.00622	0.00871
50800	9.81511	10.24470	8.34671	32.02653	43.34802	48.81114	44.27631	34.16555	21.62869	28.51975	32.91110	57.08191	18.08880	15.05859	12.01184	84.26552	89.77714	82.97298
50960	7.31508	7.44617	5.34678	93.14851	76.65991	85.76817	43.23058	30.01941	19.74975	81.81940	20.21314	22.86696	19.25563	16.55456	14.57044	56.95050	43.68267	42.66202
51120	9.60968	7.16673	5.48522	30.04254	37.08701	25.16133	45.65809	32.50201	20.33386	21.08437	28.98188	26.25321	17.11546	16.24099	13.15483	64.95276	51.22801	37.58436
51290	9.32963	10.89024	8.96898	29.72208	26.66650	40.13000	42.51313	30.60326	19.64520	28.52566	35.17224	39.57503	18.25950	13.37167	13.28251	63.83792	54.64342	34.10377
51450	7.40648	6.79608	4.49749	44.36973	55.44819	41.23507	41.60124	29.81923	18.65582	50.61045	43.30455	44.97557	15.48986	13.32039	11.59455	58.38405	40.70400	37.26734
51610	9.53038	9.82173	8.85812	36.47285	34.69772	44.84704	46.23915	33.96456	22.53074	48.10867	23.65361	35.66145	19.24880	14.28192	14.03526	72.57065	70.79574	46.69284
51780	10.24787	10.58379	9.83486	38.03152	48.05252	27.02495	48.16053	32.56217	22.52042	29.88938	35.47304	21.42663	17.35739	18.08486	13.16641	53.50255	38.27612	34.47819
51940	9.82613	8.51549	5.92458	31.90360	25.28006	23.63879	41.39613	27.82950	18.99665	27.36711	28.07530	54.59696	17.06205	12.65208	11.54505	70.53051	62.97251	47.32775
52100	9.77282	7.13587	7.76817	42.47400	44.79685	28.57571	45.05691	31.03725	18.91495	20.30506	20.70759	14.60460	16.09137	14.73635	10.64149	59.63059	43.79506	30.28682
52270	8.11172	9.23153	8.08329	25.67308	19.77477	17.84540	42.66622	29.73330	19.27313	13.82789	12.51768	12.19891	16.23519	13.66761	13.27386	51.26629	37.16054	25.73988	29.49	6.1	0.00	7.54	0.01269	0.01290	0.01639	0.00783	0.00582	0.00639	0.00468	0.01267	0.01683	0.00678	0.00691	0.00881	0.01490	0.01095	0.01197	0.00219	0.00622	0.00871
52430	12.50104	11.25511	10.56131	21.15868	19.08778	17.25693	45.06462	34.72963	19.40232	14.72012	30.71280	20.89507	17.31123	14.64976	11.90847	76.36854	45.14385	32.74320
52590	8.09391	8.36952	9.11292	28.67802	28.71537	23.61297	42.48794	31.42410	18.51795	26.83357	20.39387	18.27122	15.57903	12.67111	11.57225	52.92094	45.24077	27.73934
52750	7.75436	9.87687	7.30889	24.39559	24.85665	21.22484	46.51852	34.42330	23.20569	17.19577	14.49907	12.60797	19.52616	15.45236	14.07205	60.55499	43.04455	26.36476
52920	6.61206	6.14126	4.75158	23.18804	22.05327	20.03598	41.70940	29.46736	17.32692	16.41691	21.97237	19.38844	16.21278	13.02657	11.93844	55.73893	42.12774	25.52773
53080	8.89403	9.78906	6.61500	27.21913	34.73262	39.90050	43.34623	29.86249	22.03525	42.28276	29.14899	28.26444	18.45179	16.84902	14.27198	69.70999	45.82018	30.07886
53240	7.99869	6.73661	4.99746	28.43334	32.65792	29.05902	42.58641	29.27143	17.82300	40.30516	41.23280	34.41686	13.92475	11.95040	10.17834	73.39602	59.04214	42.30284
53410	9.04497	8.95383	11.73606	31.30937	31.44841	28.64216	45.70848	31.65126	22.91930	27.81977	26.16834	34.63222	20.08174	16.81117	15.00059	60.90929	46.09190	29.71627
53570	13.01705	10.82738	8.29095	38.10668	24.72250	23.66529	45.21541	31.50548	18.64472	15.73995	16.31468	24.00030	16.32035	16.91175	13.81969	80.04578	57.62688	46.44785
53730	9.08888	7.72815	6.79031	28.85038	23.07631	24.25150	42.89448	29.88347	19.22818	17.54827	14.85366	23.39576	16.81079	12.54862	12.02763	74.41793	76.40863	55.81826
53900	6.98570	6.83621	5.43328	41.26053	35.75516	28.35071	41.37666	28.69808	16.57575	26.66962	16.64439	10.53568	17.77661	14.07929	12.35359	50.86042	40.46213	28.11732	29.49	6.1	0.00	7.53	0.01269	0.01290	0.01639	0.00783	0.00582	0.00639	0.00468	0.01267	0.01683	0.00678	0.00691	0.00881	0.01490	0.01095	0.01196	0.00219	0.00622	0.00871
54060	11.17885	8.37490	10.46192	21.17566	19.89849	25.69458	47.02072	31.75460	22.70605	20.42283	17.14193	21.80907	19.03532	14.87283	13.03577	53.18679	49.03700	36.84076
54220	13.49805	11.16456	9.28134	31.58078	32.28849	27.92175	43.64301	33.20643	19.40992	17.89670	18.53956	15.94781	15.53523	15.30526	14.37525	71.29545	46.29430	30.32679
54390	11.37936	9.78062	10.33996	23.14569	24.33086	20.83375	44.80800	31.79769	19.22392	26.97961	24.23409	31.07684	15.97248	13.58140	10.06378	60.67071	65.19406	41.65322
54550	5.29832	6.74964	5.93946	42.58578	47.60872	40.18680	43.82310	32.10083	20.10570	34.11987	25.95805	13.20801	17.10621	15.50431	17.74930	52.68484	49.14871	61.75690
54710	13.06150	10.65451	8.94319	33.74892	35.35634	39.67340	44.17047	29.98165	20.12039	38.27135	30.37660	29.30128	15.54412	14.74494	11.61362	73.86829	66.11751	41.41670
54880	7.60501	6.70241	5.78712	27.02712	24.44525	20.06251	42.70746	31.39119	19.04466	20.26633	24.07828	23.05491	15.02063	13.61666	11.42707	81.10374	48.03054	54.39661
55040	11.99405	10.43116	9.19590	49.06574	59.65882	48.13729	46.78348	32.68065	20.87933	49.48190	41.11722	41.75743	17.08643	16.04685	13.92709	62.28179	45.68518	28.42443
55200	11.09742	11.67887	9.31683	25.86077	24.58707	21.31774	43.83595	33.17935	19.27371	16.12313	14.70807	14.31090	22.13363	18.33607	15.11433	62.76312	57.76845	43.80143
55370	9.82605	9.05740	8.20304	29.43497	27.78938	25.65938	44.41478	32.12514	21.96689	18.26011	20.85680	20.68572	17.26174	16.94962	12.00019	60.09557	48.52936	28.46543
55530	8.25827	10.90384	8.61225	27.44297	36.67397	29.71962	41.74245	32.35294	22.98851	28.42814	28.70538	34.31219	18.94322	17.59968	17.32474	83.00402	61.46149	83.87157	29.49	6.1	0.00	7.65	0.01269	0.01289	0.01640	0.00783	0.00582	0.00639	0.00468	0.01267	0.01683	0.00678	0.00691	0.00881	0.01490	0.01095	0.01196	0.00219	0.00622	0.00871
55690	11.65692	7.69350	8.49801	45.61846	42.21880	32.34108	43.85054	31.30596	19.26791	27.95314	35.01891	29.17371	15.35174	12.23696	11.01638	55.88380	52.71984	42.37941
55860	7.86595	5.28863	4.08105	26.54960	24.64551	27.72857	44.99185	31.25536	20.91561	22.52876	25.22304	38.95509	18.60038	15.62751	15.90159	80.98375	73.43928	52.61085
56020	10.24736	7.59443	9.64776	56.78339	24.82365	23.58036	47.28693	35.08380	22.13459	23.31465	18.12287	24.72597	19.32082	16.98598	14.42324	54.68946	49.94642	28.53225
56180	9.68871	10.90660	7.01989	27.22735	21.42620	22.33724	45.36815	32.53241	22.25553	24.53003	13.83459	11.78706	17.33539	15.20626	15.84216	58.04363	40.01953	29.14326
56350	10.10863	8.12109	9.00053	41.51402	25.93976	24.53747	43.81379	29.91062	19.46837	26.52937	26.80293	18.02505	18.40032	13.99818	11.45668	49.42413	37.06342	29.31719
56510	8.59960	7.51671	6.18744	53.89500	39.80912	33.24046	42.53803	31.48319	19.79545	30.81279	26.46746	26.81827	19.93743	14.08655	14.07718	59.80065	43.57401	29.49197
56670	10.08720	8.51948	9.68177	24.34199	25.37439	20.00714	45.36172	35.72648	20.43039	19.53331	31.67970	24.92173	19.42967	18.69419	15.24024	54.76893	42.38412	37.14475
56840	9.19685	10.43379	8.84082	42.29770	29.37866	24.19519	45.49318	32.13111	20.99601	23.18687	14.76375	23.70526	20.35430	16.41888	14.02756	58.79702	43.25351	44.53871
57000	9.69781	7.83682	6.74317	33.07784	29.97662	23.59089	41.58860	31.35825	19.30652	19.96057	27.37588	28.15951	16.67306	15.36838	11.68345	77.95564	68.26748	48.83309
57160	6.42840	5.48523	4.23680	63.34759	39.69560	38.95364	43.04892	31.42906	17.87036	19.62368	13.99401	15.45632	13.95599	12.53434	11.68121	49.57802	35.53253	26.39689	29.55	6.2	0.00	7.50	0.01269	0.01290	0.01640	0.00783	0.00582	0.00639	0.00468	0.01267	0.01683	0.00678	0.00691	0.00881	0.01490	0.01095	0.01196	0.00219	0.00622	0.00871
57320	7.66926	7.41339	6.16539	23.83151	20.76338	24.04683	43.90884	29.66823	20.26456	21.84697	18.30910	14.90314	17.58273	14.15916	13.67450	54.65993	44.88802	45.73201
57490	10.89004	9.43826	8.85241	37.45846	30.14352	38.32842	45.30757	34.53251	24.12029	25.07009	24.83692	51.60072	19.80045	14.91331	16.61682	94.60254	67.26147	50.87117
57650	11.02730	11.68198	8.98318	34.73388	44.63287	29.59769	43.43161	32.62398	19.20014	19.46053	21.49335	15.08559	17.14758	15.26805	14.36756	61.38306	50.51231	29.75721
57810	6.60479	5.20662	3.88272	19.88247	17.60764	16.68925	42.55988	30.01879	17.82973	14.88195	12.14796	13.45415	15.52541	12.64036	11.24675	64.08952	51.33170	36.02513
57980	8.30075	7.91138	6.75388	40.00862	45.38577	37.31972	43.83322	31.50376	20.49121	47.24254	31.00305	42.33629	19.96969	16.59350	14.72714	65.99414	47.61840	38.70454
58140	15.53906	11.67835	11.07774	22.96468	18.35370	17.25937	47.35126	31.01973	20.66449	31.10420	32.51922	37.95293	16.25210	12.43789	11.49830	71.06613	57.95989	37.53647
58300	6.05121	5.18227	4.04864	35.65210	27.07366	23.34783	43.51137	31.72604	18.34305	27.17478	30.29729	26.64107	15.24405	14.21689	10.25043	58.16421	38.30360	29.49504
58470	8.48923	8.88354	8.86048	22.77844	17.92181	17.66468	43.55059	29.55795	19.78696	12.25885	13.51561	16.01987	19.13251	13.41528	15.42388	57.56017	51.56145	34.41852
58630	10.78920	9.74609	7.52660	25.45775	23.24954	25.63269	46.88926	32.51614	19.82072	28.38714	31.82243	29.02489	15.93408	14.86697	11.31479	65.93979	44.74233	34.83510
58800	9.46352	8.26947	7.45553	28.52232	24.57449	20.96754	42.09915	30.09975	19.56437	19.19694	15.06477	16.15179	18.73922	14.17835	14.92236	50.15418	40.69534	30.52056	29.55	6.1	0.00	7.57	0.01269	0.01290	0.01639	0.00783	0.00582	0.00639	0.00468	0.01267	0.01683	0.00678	0.00691	0.00881	0.01490	0.01094	0.01196	0.00219	0.00622	0.00871
58960	10.50588	10.42723	9.16401	25.81471	24.75462	19.34347	43.46739	36.20918	19.80601	11.94792	11.97922	12.52222	17.28040	16.19872	14.75913	63.22746	80.65401	39.96561
59120	9.72020	7.23415	5.91416	43.11405	37.66987	34.97176	41.36391	31.50914	22.61553	41.51855	32.55116	29.46168	16.18777	18.23433	14.23137	85.53587	61.73005	41.35885
59290	9.22089	10.61330	6.32609	41.34014	28.54929	23.82601	43.25538	31.80406	19.63384	37.95983	31.10539	39.39740	15.06365	13.16752	15.16794	80.16194	73.24244	59.12453
59450	8.80833	8.99480	6.36414	48.31991	39.57642	27.11140	43.85556	29.00310	19.50656	18.36399	10.69588	12.18775	17.69424	15.49707	15.56061	65.96747	52.46269	45.91468
59610	5.94329	4.99112	4.60109	33.88218	34.51032	26.77455	43.09543	30.35475	18.32611	38.64534	24.71486	37.91920	17.13960	13.66129	12.00758	61.26404	43.68358	32.69137
59780	6.80542	6.88143	5.53101	24.57704	19.31947	22.25529	42.30196	30.59369	18.78193	22.72727	20.03998	13.35121	14.30666	12.97810	11.91478	52.84457	53.67235	38.56773
59940	6.18974	6.24980	6.98056	36.36948	37.03060	41.85618	45.64936	30.90803	18.98974	36.66286	23.72932	34.17524	16.80664	14.57042	15.01996	64.88673	40.98672	31.56027
60100	9.70136	9.94704	8.30057	45.82237	30.95217	24.86415	45.62077	30.17290	18.76025	16.29314	13.81224	11.43310	16.62837	13.14744	12.45372	50.07069	35.55307	24.85885
60270	6.72583	12.05750	9.24745	33.24361	21.92000	19.48693	43.81697	32.98072	18.93186	26.24098	22.26047	18.40465	16.44541	17.12890	13.65509	68.07737	52.06484	42.88008
60430	7.66659	8.69843	7.32832	38.24553	30.09486	44.77312	43.31654	31.63382	20.92261	39.74288	30.64732	33.88007	16.66542	15.75399	12.74310	77.34165	81.55481	64.57620	29.49	6.1	0.00	7.54	0.01270	0.01290	0.01639	0.00783	0.00582	0.00639	0.00468	0.01267	0.01683	0.00678	0.00691	0.00881	0.01489	0.01095	0.01196	0.00219	0.00622	0.00871
60590	8.18167	8.72286	6.74288	57.02792	47.58281	37.69696	43.73320	34.76936	22.01506	41.68059	23.97492	19.71459	18.04973	15.22373	14.69799	54.49537	40.95502	32.80658
60760	14.62046	12.97346	7.95357	29.53481	27.78693	35.00239	46.19220	32.83669	22.99332	24.86344	31.52329	39.12246	17.31310	15.73128	11.38117	68.38423	78.52225	41.41572
60920	8.36691	9.38404	9.98835	36.21017	49.10418	43.35564	45.28380	31.26069	20.03751	26.01422	22.58392	31.20953	16.45753	14.28780	14.46091	55.21987	34.19361	23.86182
