WetView ver 7.1	07-14-2018	13:25:46
AC9 Absorption and Attenuation Meter
00000266		; Serial number
2	; structure version number
Reserved
0.000000	0.000000		; Depth calibration
19200			; Baud rate
0.100000			; Path length (meters)
31			; number of temperature calibration bins
				12.59339	13.44920	14.48425	15.49668	16.50852	17.49564	18.50545	19.52458	20.50176	21.48889	22.47318	23.48707	24.50962	25.49370	26.49784	27.51372	28.50746	29.47237	30.47938	31.50214	32.50470	33.49235	34.50337	35.50914	36.50618	37.52058	38.51018	39.51308	40.49994	41.49866	42.47204	; temperature bins
a650	Blue	20.34952		-0.00383	-0.00415	-0.00430	-0.00391	-0.00363	-0.00317	-0.00269	-0.00237	-0.00179	-0.00130	-0.00099	-0.00071	-0.00015	0.00000	0.00004	-0.00001	0.00015	0.00036	0.00058	0.00101	0.00161	0.00132	0.00160	0.00169	0.00242	0.00273	0.00336	0.00365	0.00427	0.00566	0.00670		; offset and temperature correction info
a676	Green	20.51193		-0.00398	-0.00384	-0.00360	-0.00306	-0.00302	-0.00255	-0.00235	-0.00212	-0.00163	-0.00136	-0.00118	-0.00089	-0.00029	0.00000	0.00068	0.00082	0.00099	0.00137	0.00145	0.00212	0.00260	0.00252	0.00321	0.00354	0.00457	0.00535	0.00617	0.00648	0.00742	0.00887	0.01002		; offset and temperature correction info
a715	Brown	20.23230		-0.00421	-0.00394	-0.00391	-0.00291	-0.00264	-0.00192	-0.00204	-0.00179	-0.00188	-0.00239	-0.00180	-0.00187	-0.00099	0.00000	0.00084	0.00162	0.00188	0.00224	0.00321	0.00381	0.00466	0.00528	0.00588	0.00696	0.00859	0.01041	0.01148	0.01282	0.01333	0.01456	0.01617		; offset and temperature correction info
c510	Red	20.40042		-0.00261	-0.00247	-0.00258	-0.00225	-0.00203	-0.00197	-0.00199	-0.00203	-0.00154	-0.00103	-0.00069	-0.00019	-0.00007	0.00000	0.00011	-0.00021	-0.00042	-0.00056	-0.00040	0.00011	0.00036	0.00050	0.00077	0.00079	0.00050	0.00042	0.00043	0.00092	0.00147	0.00200	0.00232		; offset and temperature correction info
c532	Magenta	20.40760		-0.00248	-0.00265	-0.00278	-0.00279	-0.00296	-0.00292	-0.00238	-0.00206	-0.00129	-0.00096	-0.00092	-0.00052	-0.00009	0.00000	0.00007	-0.00049	-0.00136	-0.00107	-0.00079	-0.00065	-0.00074	-0.00105	-0.00152	-0.00192	-0.00236	-0.00269	-0.00252	-0.00233	-0.00172	-0.00128	-0.00067		; offset and temperature correction info
c555	Black	20.50654		-0.00053	-0.00063	-0.00106	-0.00094	-0.00068	-0.00055	-0.00053	-0.00039	-0.00028	-0.00025	-0.00011	-0.00035	-0.00007	0.00000	-0.00037	-0.00055	-0.00036	-0.00014	0.00019	0.00044	0.00032	0.00040	0.00050	0.00028	0.00014	0.00013	0.00030	0.00073	0.00117	0.00176	0.00241		; offset and temperature correction info
a412	LtBlue	17.15231		-0.01972	-0.01823	-0.01612	-0.01381	-0.01272	-0.01080	-0.00959	-0.00866	-0.00710	-0.00532	-0.00354	-0.00148	-0.00028	0.00000	0.00176	0.00297	0.00394	0.00440	0.00453	0.00487	0.00804	0.00856	0.01065	0.01248	0.01388	0.01439	0.01659	0.01881	0.02256	0.02450	0.02719		; offset and temperature correction info
a440	LtGreen	18.00171		-0.00729	-0.00642	-0.00581	-0.00502	-0.00426	-0.00349	-0.00244	-0.00218	-0.00179	-0.00101	-0.00046	-0.00006	0.00036	0.00000	0.00040	0.00045	0.00030	-0.00015	-0.00024	-0.00035	0.00012	-0.00013	-0.00033	-0.00089	-0.00142	-0.00189	-0.00231	-0.00205	-0.00140	-0.00140	-0.00146		; offset and temperature correction info
a488	Yellow	18.86491		-0.00113	-0.00102	-0.00106	-0.00064	-0.00027	-0.00020	-0.00030	-0.00037	-0.00047	-0.00059	-0.00052	-0.00012	0.00008	0.00000	0.00025	0.00012	-0.00013	-0.00043	-0.00065	-0.00076	-0.00025	0.00010	0.00090	0.00111	0.00113	0.00104	0.00073	0.00068	0.00120	0.00186	0.00258		; offset and temperature correction info
c650	Blue	20.46075		-0.00145	-0.00097	-0.00092	-0.00139	-0.00185	-0.00196	-0.00237	-0.00266	-0.00238	-0.00163	-0.00083	-0.00041	-0.00010	0.00000	0.00005	-0.00001	0.00015	0.00034	0.00029	0.00065	0.00101	0.00164	0.00126	0.00156	0.00175	0.00270	0.00287	0.00371	0.00407	0.00473	0.00534		; offset and temperature correction info
c676	Green	20.10118		-0.00170	-0.00144	-0.00149	-0.00177	-0.00188	-0.00194	-0.00198	-0.00196	-0.00177	-0.00156	-0.00140	-0.00091	-0.00033	0.00000	0.00050	0.00092	0.00110	0.00141	0.00167	0.00199	0.00216	0.00265	0.00269	0.00289	0.00315	0.00374	0.00367	0.00408	0.00486	0.00561	0.00646		; offset and temperature correction info
c715	Brown	19.91219		-0.01201	-0.01097	-0.00859	-0.00680	-0.00651	-0.00592	-0.00535	-0.00440	-0.00387	-0.00303	-0.00222	-0.00153	-0.00028	0.00000	0.00093	0.00149	0.00247	0.00322	0.00330	0.00427	0.00373	0.00464	0.00536	0.00551	0.00643	0.00733	0.00779	0.00884	0.00899	0.01021	0.01120		; offset and temperature correction info
a510	Red	19.21192		0.00201	0.00193	0.00158	0.00098	0.00089	0.00049	0.00011	-0.00016	-0.00016	-0.00005	0.00028	0.00025	0.00006	0.00000	0.00035	-0.00022	-0.00023	-0.00080	-0.00144	-0.00154	-0.00153	-0.00204	-0.00220	-0.00219	-0.00190	-0.00128	-0.00069	-0.00018	0.00068	0.00152	0.00241		; offset and temperature correction info
a532	Magenta	19.41084		-0.00097	-0.00072	-0.00060	-0.00081	-0.00062	-0.00071	-0.00040	0.00020	0.00028	0.00043	0.00000	-0.00035	0.00007	0.00000	-0.00011	-0.00059	-0.00080	-0.00098	-0.00137	-0.00162	-0.00163	-0.00130	-0.00073	-0.00018	0.00090	0.00185	0.00175	0.00247	0.00291	0.00327	0.00349		; offset and temperature correction info
a555	Black	19.69776		0.00171	0.00183	0.00183	0.00186	0.00191	0.00170	0.00115	0.00131	0.00097	0.00073	0.00060	0.00013	0.00015	0.00000	0.00014	-0.00029	-0.00066	-0.00082	-0.00116	-0.00139	-0.00134	-0.00167	-0.00119	-0.00093	-0.00048	0.00053	0.00111	0.00095	0.00178	0.00206	0.00273		; offset and temperature correction info
c412	LtBlue	19.91180		-0.02051	-0.01853	-0.01589	-0.01311	-0.01059	-0.00877	-0.00705	-0.00581	-0.00413	-0.00231	-0.00098	-0.00066	-0.00011	0.00000	-0.00013	-0.00085	-0.00170	-0.00170	-0.00302	-0.00330	-0.00429	-0.00551	-0.00626	-0.00775	-0.00978	-0.01181	-0.01113	-0.01108	-0.01116	-0.01192	-0.01291		; offset and temperature correction info
c440	LtGreen	20.06241		-0.01064	-0.00992	-0.00892	-0.00766	-0.00639	-0.00531	-0.00478	-0.00384	-0.00287	-0.00187	-0.00102	-0.00063	-0.00023	0.00000	-0.00007	-0.00053	-0.00090	-0.00119	-0.00169	-0.00197	-0.00226	-0.00257	-0.00260	-0.00289	-0.00394	-0.00470	-0.00481	-0.00493	-0.00520	-0.00580	-0.00620		; offset and temperature correction info
c488	Yellow	20.35984		-0.01125	-0.01082	-0.00966	-0.00833	-0.00726	-0.00661	-0.00579	-0.00500	-0.00389	-0.00278	-0.00167	-0.00113	-0.00041	0.00000	0.00055	0.00121	0.00187	0.00226	0.00222	0.00251	0.00281	0.00359	0.00414	0.00427	0.00401	0.00404	0.00486	0.00563	0.00638	0.00684	0.00718		; offset and temperature correction info
0.003500	0.004000	0.015000	0.020000	0.015000	0.020000	2500.000000	2000.000000	1000.000000	; maxANoise	maxCNoise	maxADifference	maxCDifference	minACounts	minCCounts	minRCounts	maxTempSdev	maxDepthSdev
0			; auxilliary capabilities
1			; acquisition binsize
0	6.77455	6.96761	5.88068	22.60401	20.93367	19.00279	43.22158	30.14138	17.98220	14.40557	13.44617	13.40687	15.47183	12.42160	10.64798	52.51581	38.06691	27.03616	29.95	6.0	0.00	7.62	0.01269	0.01289	0.01638	0.00782	0.00581	0.00638	0.00468	0.01265	0.01681	0.00677	0.00691	0.00880	0.01489	0.01094	0.01195	0.00219	0.00621	0.00870
160	7.25324	6.25800	6.06764	22.59888	21.92679	19.09252	42.89664	30.35325	18.13461	13.73546	13.49376	12.33593	15.12828	12.77423	11.06181	50.13364	38.08959	25.67948
320	6.79488	6.22044	5.16067	22.19727	19.54826	18.34042	41.76766	29.42742	17.26165	14.60700	12.89707	13.65026	14.96564	12.41377	10.55570	51.99047	37.58344	26.34474
490	6.51715	6.21927	5.26897	23.30545	21.09229	19.16678	42.19065	29.25354	17.41659	14.04486	13.23846	12.63077	14.73804	12.30236	11.02381	50.48655	37.04646	25.85597
650	6.97577	6.21014	5.03468	23.37123	20.17705	18.87219	41.52102	30.09171	17.91376	15.20097	13.86736	13.03450	14.92717	12.56245	11.36665	50.45762	36.99677	25.49528
810	7.53760	6.73551	5.20747	23.68749	20.81518	18.93668	42.04663	29.70164	18.26683	14.05961	13.35087	12.66046	15.39108	12.21629	10.89697	52.19456	37.44660	26.35397
980	7.68960	6.54621	5.74471	24.23150	23.80076	21.56721	42.52531	29.66528	18.24875	16.20818	15.22470	13.95523	15.11355	12.68783	10.53145	53.02538	39.07224	25.82596
1140	6.80476	6.59367	5.50340	22.78560	20.98029	18.53379	42.26895	29.25775	17.72273	13.93989	13.72773	14.40306	14.98503	12.52686	11.25475	50.66189	38.95478	27.35350
1300	7.20950	6.41515	5.40486	25.66800	21.96737	19.39269	43.01112	29.65002	17.63363	16.33998	16.16226	13.79324	15.08036	13.19489	11.10456	51.15746	39.66073	27.79999
1470	6.77238	6.41293	5.46997	24.12369	22.19518	21.25169	42.86655	29.58426	17.67132	15.43203	14.06370	12.83028	14.94114	12.65212	10.99334	50.24612	37.60892	26.06905
1630	7.24758	6.73396	5.44597	24.69966	23.05467	19.79582	43.13391	29.91227	18.27972	14.72653	13.50153	12.88645	15.08255	12.74514	11.07069	51.98292	39.43722	27.21103	29.95	6.0	0.00	7.69	0.01268	0.01289	0.01637	0.00782	0.00581	0.00638	0.00468	0.01266	0.01681	0.00677	0.00691	0.00880	0.01489	0.01094	0.01195	0.00219	0.00621	0.00870
1790	6.77079	6.73426	5.73131	24.22721	22.43172	20.06666	41.94732	29.78203	17.70116	15.91393	13.88285	13.52734	14.76941	12.25605	10.74182	52.95016	39.71273	27.20545
1960	7.09751	6.28687	5.43215	22.94164	22.03828	21.01252	42.58367	29.50120	17.87114	15.25604	14.93479	14.84159	14.64780	12.62792	10.67512	52.41612	39.87841	28.41165
2120	6.55666	6.15824	4.97397	24.78052	21.74652	19.89036	42.28166	29.78249	18.68775	14.97844	13.98942	14.21646	15.26680	12.90490	11.21697	53.19023	38.88842	27.70226
2280	7.10918	6.29797	5.47823	23.17904	21.77413	19.13441	42.03293	29.65587	17.74496	15.72020	14.48185	13.91983	14.81643	13.36994	11.56301	53.25880	38.98153	27.05889
2450	7.00958	6.48944	5.49454	23.59517	22.12392	19.96036	42.47396	29.53815	17.80517	16.06814	16.84077	13.76657	15.15618	12.50277	10.83702	51.10720	38.53049	29.50424
2610	6.89063	6.51906	5.31255	23.83407	22.06404	20.10483	42.72253	29.35636	17.68735	16.85617	15.61644	15.17484	15.34178	13.13495	11.59928	52.18000	38.31624	25.98305
2770	6.39172	5.66749	4.74066	24.67040	22.87117	22.51033	41.89569	29.23398	17.66157	15.47320	15.53715	14.62377	15.09902	12.45688	11.25111	52.40910	39.82842	28.28591
2940	7.39473	6.69729	6.18822	24.16235	20.40710	20.46186	42.34482	29.69143	18.09601	13.58344	13.54428	12.80913	14.97973	12.60108	11.02425	53.71236	37.76376	25.97511
3100	7.07562	6.25666	5.13590	25.35310	22.45034	20.89390	42.53674	29.12096	17.75914	16.31302	17.13581	14.74612	16.25363	13.24586	11.82534	52.16628	39.95527	29.49142
3260	6.64589	5.90597	4.88202	24.33171	20.51337	19.48439	42.70060	29.19625	17.91999	16.39513	14.68736	12.65291	14.77560	12.46134	10.91412	50.75469	38.24604	27.50443	29.89	6.0	0.00	7.53	0.01268	0.01289	0.01637	0.00782	0.00581	0.00638	0.00467	0.01265	0.01681	0.00677	0.00691	0.00880	0.01488	0.01093	0.01195	0.00219	0.00621	0.00870
3430	7.34766	7.01318	5.70944	23.80000	20.51337	19.21037	42.20238	29.73573	18.08761	17.26032	16.32921	16.31570	15.06247	12.48626	11.08581	50.71904	41.12700	28.91654
3590	6.88007	6.28360	5.00967	23.66516	23.15450	20.96937	41.88402	28.98962	17.82592	17.04806	13.87429	12.83524	14.63220	12.40424	11.16440	53.62358	38.85620	25.96790
3750	6.84991	6.52028	5.58182	22.57700	20.77350	18.65081	42.71375	30.25388	18.40545	14.32878	14.16388	13.15021	15.84308	13.07426	11.30876	50.10373	37.16267	26.38919
3920	7.46600	6.89341	5.70293	24.57186	21.59470	22.45573	42.93493	29.95122	18.06782	15.14852	14.20597	13.50873	15.44395	13.12038	11.41588	51.84142	38.75303	28.05573
4080	7.66987	7.64831	6.05509	24.18054	21.80901	20.68017	43.28747	29.89026	18.73755	16.40622	15.38982	14.91816	15.33391	13.04005	11.52321	51.70304	39.22170	27.87167
4240	7.01645	6.45047	5.27270	22.39195	19.83105	18.05679	42.58303	29.52865	17.72968	15.53808	16.15394	15.03613	15.76213	13.40708	12.18876	52.24080	39.15412	28.03045
4410	6.88989	6.71165	5.17029	24.38189	23.27666	21.00594	42.88796	29.42272	17.99339	15.80117	15.06959	15.82427	15.59003	13.40433	11.32891	55.09003	39.66150	27.96893
4570	7.14718	7.18071	6.15350	23.62160	21.01579	18.66861	42.63348	30.03874	17.99898	15.43260	15.72623	14.11235	15.21952	12.56591	11.14051	52.02221	37.92656	26.92757
4730	7.25180	6.98415	5.37678	24.87860	22.84507	21.34157	42.59440	30.13083	18.60498	15.96088	13.28176	13.29443	15.16352	12.15199	10.98829	51.08140	37.21001	26.10958
4900	6.92618	6.60662	5.87464	23.10802	23.68013	21.47015	43.04899	29.79900	17.83143	15.72100	15.79175	17.08453	15.51558	13.20938	11.07636	54.65523	40.14037	26.13695	29.95	6.0	0.00	7.56	0.01268	0.01289	0.01637	0.00781	0.00581	0.00638	0.00467	0.01265	0.01681	0.00677	0.00691	0.00880	0.01488	0.01094	0.01195	0.00219	0.00621	0.00869
5060	7.08016	6.80527	5.20765	23.99532	23.62860	20.70368	42.78549	29.62114	18.26081	15.10762	15.82783	12.85713	15.35581	13.01340	11.20220	52.62457	38.57989	30.85704
5220	7.33613	7.25940	5.88441	26.43970	24.00310	24.80237	43.17219	29.70337	18.12519	18.21974	16.12161	14.69698	15.22234	13.35460	11.19531	54.60260	41.10370	27.17897
5390	6.74835	6.35399	5.28181	25.14748	22.02115	20.54548	42.26585	29.80406	17.91646	16.73139	14.87207	15.02677	15.10169	13.44392	11.78788	53.02741	39.17441	27.87393
5550	7.40517	7.26496	5.68312	25.51753	21.48926	19.12905	42.55299	29.77894	18.50846	15.07838	13.52291	15.27789	15.20617	12.69584	11.49877	50.85293	38.49405	28.18755
5710	7.53487	7.40402	5.79046	24.53900	22.76491	21.45730	43.17392	29.67730	19.19027	15.31228	17.44941	17.06376	15.36287	13.30691	11.18047	55.87934	44.46779	30.18787
5880	7.65930	6.72890	5.44028	24.77882	21.42544	19.46810	43.27256	29.88580	18.35972	15.41155	14.22362	14.54245	15.37847	12.69517	11.26606	51.15821	38.57806	26.95995
6040	7.02326	6.76627	5.59495	24.54801	21.76935	19.57940	42.91217	29.83569	18.54940	15.74774	14.15094	14.73581	15.40350	12.70802	11.41670	51.40932	39.49418	26.88211
6200	6.92392	6.84832	6.16847	26.34776	22.81595	20.86530	42.78217	30.76839	18.12117	19.02671	18.32456	16.59631	15.42893	12.93164	11.46033	53.23126	39.66241	27.89970
6370	7.18213	6.18455	5.11662	24.78852	21.54233	20.16045	42.78217	29.49207	18.29618	16.48731	14.98275	15.00293	15.54973	13.39611	11.19484	52.74009	38.74325	28.33548
6530	7.46410	6.76327	6.28232	24.95526	23.99242	20.07586	43.35100	30.40801	18.57194	14.97579	15.65889	15.43000	15.70143	13.63975	11.53458	54.90156	41.46719	32.56764	29.95	6.1	0.00	7.67	0.01269	0.01289	0.01637	0.00781	0.00581	0.00638	0.00467	0.01265	0.01681	0.00677	0.00691	0.00880	0.01488	0.01093	0.01195	0.00219	0.00621	0.00870
6690	7.57213	6.49848	5.66558	25.57840	24.10955	22.86667	42.67335	30.28369	18.31161	20.04121	18.85666	16.73103	15.08381	12.58401	11.43176	55.24990	40.26961	26.08586
6860	7.18428	6.43874	6.04413	27.02356	23.62581	22.67204	42.71109	29.37295	17.72983	15.46580	15.11483	14.17816	15.13751	13.36904	12.20799	51.64033	38.84430	26.69605
7020	7.74964	6.56195	6.04254	24.97115	21.41807	20.97115	42.27201	29.91137	18.16769	19.49542	17.23928	15.64276	16.17411	13.16433	11.63123	55.38136	40.46111	28.31000
7180	7.90987	7.10624	5.23995	24.77740	23.26602	21.18837	42.46746	29.54300	19.14996	16.14632	16.19056	14.36472	16.00424	13.07843	11.50930	52.13343	41.08767	26.50411
7350	8.55773	7.70345	7.00256	24.92176	22.51002	21.59064	43.84688	30.05577	18.41347	18.60273	15.88712	14.68866	15.90962	13.64236	10.90889	53.07834	39.66426	31.97501
7510	6.68461	6.45593	5.73144	25.70879	24.44694	23.00789	42.87855	30.05703	19.21493	18.38743	17.42250	13.16153	15.62402	12.92639	12.18464	52.55903	40.80952	28.61617
7670	7.71120	6.92821	5.57948	26.45757	25.67198	23.43688	42.22178	29.83094	18.21369	16.40341	14.15842	15.02514	15.46375	13.01912	10.93849	51.85059	39.36553	26.79447
7840	7.47351	7.48863	6.22941	26.48753	24.32323	22.02097	42.93388	29.88103	18.04258	15.28490	14.79459	16.72708	14.82045	13.06932	11.30078	56.36380	41.85828	30.08826
8000	7.23240	6.61095	5.64370	25.83683	23.63091	22.48430	42.22178	29.53882	18.04121	17.57138	14.85652	13.11371	15.11681	12.81639	11.76143	51.00430	37.59647	26.06485
8160	7.10911	6.81305	6.14323	22.98091	20.09001	20.91978	42.15484	29.58859	18.25593	17.85329	16.24651	13.28752	15.11098	12.34018	11.00658	52.67563	39.08018	26.65501	29.95	6.3	0.00	7.58	0.01268	0.01289	0.01637	0.00781	0.00581	0.00638	0.00467	0.01265	0.01681	0.00677	0.00691	0.00880	0.01488	0.01093	0.01195	0.00219	0.00621	0.00870
8330	7.15376	7.38124	5.54691	24.60340	22.81779	21.44576	42.98980	30.11523	18.82528	18.58135	16.62415	16.24616	15.50284	13.15295	11.23465	51.75996	39.20110	27.66837
8490	7.39510	6.61155	5.50362	26.37741	23.12378	21.31228	42.33058	30.35296	18.20137	15.95323	15.67342	16.47009	15.13943	13.29516	11.82219	51.03676	38.86653	28.04634
8650	6.93779	6.85986	5.99442	25.91661	21.82484	22.67989	43.47660	29.99383	18.39566	16.40754	15.39518	16.42661	15.68765	13.60136	11.66912	54.40270	38.86212	26.98502
8820	7.37662	6.57589	5.69603	24.55463	22.02884	18.07407	43.77390	30.21236	18.98774	14.56162	14.34080	16.57423	15.59259	12.53067	11.56556	51.81935	38.50935	30.10548
8980	7.07171	6.42596	4.98792	28.45477	23.59360	19.99626	42.37660	29.62995	19.10727	17.03827	15.81069	17.14132	15.88378	14.38335	12.00172	55.77849	43.36959	27.53625
9140	7.82636	7.20795	5.91865	25.05238	22.34997	21.91656	43.07982	29.79253	18.82860	15.35522	13.75535	14.37429	15.79156	13.04325	10.79595	56.84631	40.97370	30.11912
9310	6.38563	6.04681	4.81294	25.77383	22.82981	19.70061	42.87381	30.52899	18.45698	17.14485	21.76037	21.45449	15.97161	12.80398	10.91405	57.90721	43.12199	30.32888
9470	7.21084	6.29951	5.14963	27.91832	22.41434	21.55569	43.90089	30.75579	18.79657	18.10583	18.07680	15.29823	15.27309	13.33676	11.15812	53.16318	39.20760	27.96886
9630	7.35206	7.17215	6.11794	29.29819	25.79302	23.07442	43.26755	30.06410	17.89575	14.94350	13.65612	16.40491	15.52703	12.91665	10.81251	51.92580	37.97740	26.70480
9800	7.12901	6.28701	5.32902	26.99875	25.21989	24.45768	42.55090	30.82106	17.52226	16.35089	18.51955	17.98174	15.54806	13.74516	11.45949	55.97629	40.50921	30.02207	29.95	6.0	0.00	7.58	0.01268	0.01289	0.01637	0.00781	0.00581	0.00638	0.00467	0.01265	0.01681	0.00677	0.00691	0.00880	0.01488	0.01093	0.01195	0.00219	0.00621	0.00870
9960	8.57565	7.22403	5.68495	27.89444	24.20678	22.20577	42.24030	30.46913	17.73285	17.00540	15.96259	15.07137	15.22430	13.35217	11.02970	53.29188	39.62083	27.08485
10120	7.45857	7.55119	6.44445	27.82834	25.63585	22.79269	43.40148	29.82447	17.78551	18.64172	17.47466	15.37463	14.99188	13.05220	11.40332	53.13967	38.54087	26.68697
10290	6.94305	6.81647	6.51672	25.77180	24.33163	25.74830	43.13211	30.35457	18.78454	16.20771	15.24181	14.06353	16.22901	13.12112	11.39930	51.66094	41.46224	28.64238
10450	7.12962	6.72069	5.92191	25.23102	22.29777	22.55288	43.20266	29.70154	18.12961	18.24784	18.67223	16.71436	15.60964	13.35467	11.03893	51.27124	38.07448	26.97332
10610	7.63170	7.53251	6.15143	24.51557	21.90806	19.33407	42.10477	29.09254	17.60178	18.58930	17.12290	21.07178	15.47539	13.35324	12.13803	54.76842	43.32124	28.84500
10780	8.61344	7.54146	6.43809	26.00763	24.05683	20.63922	42.22932	29.59720	18.64101	16.34220	18.39118	16.69277	15.00671	12.97309	11.25974	56.42765	45.83762	30.81501
10940	6.74977	6.92478	6.89571	26.18979	23.25851	20.72126	46.52499	30.95884	19.40951	16.76143	17.34689	16.97671	15.24626	12.92263	11.68271	55.61190	40.00956	27.91457
11100	7.01939	6.81769	5.67264	24.13038	23.44291	22.67816	44.00409	31.03919	19.82457	16.80026	17.51971	13.80444	15.32678	12.92505	11.64941	57.21323	41.44187	28.20673
11270	7.83705	7.62361	5.99553	23.49744	22.25176	18.72979	42.63865	31.12160	18.72615	15.89176	16.39081	15.83539	15.55637	13.19804	11.39332	56.35447	44.80969	29.10346
11430	6.98686	6.81458	5.67155	23.58884	23.03217	23.56956	44.00324	29.97675	18.45949	18.73338	20.38911	19.17994	15.13028	13.05772	11.45722	56.78197	44.11628	32.35265	29.95	6.2	0.00	7.69	0.01268	0.01289	0.01637	0.00781	0.00581	0.00638	0.00467	0.01265	0.01681	0.00677	0.00690	0.00879	0.01488	0.01093	0.01195	0.00219	0.00621	0.00870
11590	8.06379	7.14487	5.63970	29.87767	23.90994	24.13284	44.62048	30.24140	18.78309	20.52095	17.71709	16.77455	14.92083	13.07515	11.97108	56.84740	42.73865	31.02766
11760	7.38778	7.44994	6.53335	28.62961	23.61389	25.15535	42.80091	31.43681	19.83839	21.49068	20.88713	17.78071	15.89175	13.31229	12.71029	55.09556	42.95690	31.75623
11920	8.69497	8.29177	6.70888	28.29500	26.81934	22.70049	43.14685	30.35904	18.53866	18.60028	18.18131	17.01819	16.99968	14.23509	12.31943	53.31682	41.30641	28.77978
12080	8.37193	7.94205	6.34505	25.58494	20.96323	21.94239	42.07489	29.42674	17.70410	16.99085	16.36983	15.96073	15.10597	13.39945	10.73487	56.88028	39.96708	28.49539
12250	7.03218	6.54447	5.75794	26.94140	27.24360	25.13396	43.35330	29.92446	18.53701	16.57411	15.58928	17.55153	15.52663	13.19401	11.36153	53.33221	42.53868	31.70195
12410	7.13388	6.85758	5.79463	26.30537	23.01511	21.03168	42.62337	30.52164	18.66739	15.89806	14.83080	18.34566	15.78708	13.04831	11.55905	57.37532	45.01117	29.57067
12570	6.95277	6.83586	6.14704	28.38562	27.73415	21.10373	43.01042	30.69297	19.81037	23.05812	20.66151	16.84720	15.63274	13.56502	12.16566	57.93266	44.47239	36.01283
12740	7.23026	6.63302	6.14413	26.81456	22.72748	19.93230	44.16922	30.64215	18.64482	15.50094	18.95723	19.93248	17.63223	13.49012	11.79213	54.01719	45.18005	31.33372
12900	7.82495	6.97236	5.53170	31.87969	31.43023	24.64629	43.38841	30.07537	18.74911	16.04724	16.44371	14.85962	15.68557	13.18225	12.83089	55.17854	42.63450	31.09442
13060	7.68750	6.96242	6.57496	28.89806	25.88196	25.17570	44.17039	30.31248	18.94437	15.57345	17.91965	14.22479	15.89219	13.45646	11.58652	51.83457	40.47198	32.34610	30.00	6.1	0.00	7.52	0.01268	0.01289	0.01637	0.00782	0.00581	0.00638	0.00468	0.01266	0.01681	0.00677	0.00690	0.00879	0.01488	0.01093	0.01195	0.00219	0.00621	0.00870
13230	7.52656	7.50260	6.09282	29.06844	29.99336	24.95768	43.25729	31.22309	19.01188	23.28458	25.41333	18.66758	15.64489	13.42915	11.74012	53.29468	38.42212	31.34098
13390	7.33918	8.34703	6.57659	25.02329	23.53044	23.42005	43.63382	29.85656	18.87493	20.62024	19.75588	19.54674	16.25914	13.91995	12.18021	53.55101	42.67981	29.02538
13560	8.60201	7.05461	5.75615	24.66530	23.91057	22.54155	42.40468	30.18857	18.10683	19.37706	16.62488	14.18743	15.21308	12.83896	11.55393	53.91964	45.16286	30.65717
13720	6.90443	6.26563	5.82832	27.84292	26.11273	26.87107	43.92629	29.61237	19.20646	17.42930	18.12735	15.92686	15.41490	12.98475	12.54054	59.54441	43.15229	28.52230
13880	8.56858	8.10350	6.72775	25.40312	22.68880	23.57199	43.68077	30.18220	17.91060	19.23573	16.86730	15.42791	15.39776	13.63614	11.32806	57.78827	42.84794	30.39925
14050	7.39032	6.17948	5.05369	28.72772	22.42534	20.69237	42.57013	29.53253	18.05782	16.47292	16.63659	14.45369	15.02609	13.29295	11.30325	56.15107	40.03762	27.38341
14210	8.53475	7.69998	6.68628	26.50523	22.18285	21.30925	42.43180	29.53984	18.32048	19.16399	16.06180	14.80233	15.84895	12.79361	11.76689	55.23515	41.63053	28.84327
14370	7.56409	6.59393	5.65191	25.37059	27.08608	22.76505	42.56366	30.04495	18.16775	15.70610	14.55769	13.37464	15.90473	13.55582	12.22513	52.18525	39.20476	31.33194
14540	7.75429	7.05188	5.46787	25.41847	24.30526	19.49878	42.45739	29.89763	17.80610	17.72757	18.56304	16.78630	15.37645	12.75709	11.21436	53.31771	38.47401	27.48942
14700	7.39859	7.42378	6.18637	24.83931	24.39135	19.70303	43.22841	29.74064	18.61489	22.59269	21.25038	17.17080	16.01537	13.73906	11.52019	56.12125	41.99327	30.53000	29.95	6.2	0.00	7.58	0.01268	0.01289	0.01637	0.00782	0.00581	0.00638	0.00468	0.01266	0.01681	0.00677	0.00690	0.00879	0.01488	0.01093	0.01195	0.00219	0.00621	0.00870
14860	7.78701	6.68323	5.69175	27.59064	25.66717	25.17181	43.04504	29.97489	18.39539	17.03186	19.28753	17.53161	16.02704	13.14997	11.34153	54.09330	39.37896	29.51965
15030	8.39290	7.47899	5.76600	27.61697	24.34545	23.91196	43.34496	30.27499	18.49874	17.49720	15.54059	15.19524	16.30894	13.61456	11.35581	52.70001	39.23890	28.14456
15190	7.93568	7.14090	5.96587	24.71151	22.63033	21.81788	43.78129	30.53215	18.75706	18.16668	18.75384	16.60756	15.43531	13.28682	12.27278	54.61322	42.75336	34.59006
15350	7.09749	6.61326	5.83402	28.96410	27.16957	21.00108	43.88418	30.33899	18.45224	17.98751	18.81273	17.92909	15.78690	13.64323	11.91579	53.12812	40.80503	29.88856
15510	7.41648	7.04922	6.29006	26.66031	24.32463	20.44839	42.89839	30.17125	18.48894	16.39431	15.38408	13.53055	15.24014	12.39958	11.03172	52.57079	39.42609	27.54488
15680	7.60606	6.75996	6.13961	24.20499	25.18632	21.92541	43.30480	30.33171	18.34960	16.74037	13.85838	14.21284	14.67851	12.60433	11.28218	51.86851	40.86324	31.07353
15840	7.07107	6.59404	5.47282	25.73172	22.23740	18.91874	42.88334	29.44025	17.58791	16.29540	15.55905	13.99121	15.13563	13.31265	11.77148	51.94861	37.79319	29.06531
16010	7.01653	6.80660	5.29416	26.01366	21.50075	20.93678	42.86331	29.88207	18.11238	18.66348	16.15139	13.31462	15.42110	13.71489	11.25966	50.79166	39.26767	28.59192
16170	7.34556	6.47961	6.34390	22.71714	23.06340	20.43808	42.81839	30.58968	18.53826	18.24202	16.82227	14.17350	15.69525	13.18199	10.92458	51.18745	38.65611	27.23500
16330	7.07521	6.38042	5.95295	22.46800	20.93686	20.11350	43.42905	30.10720	18.86084	14.69899	14.06123	12.78584	16.27549	12.83256	11.71718	51.01285	38.42874	29.79982	29.95	6.3	0.00	7.53	0.01268	0.01289	0.01637	0.00781	0.00581	0.00638	0.00468	0.01266	0.01681	0.00677	0.00690	0.00880	0.01488	0.01093	0.01195	0.00219	0.00621	0.00869
16500	7.44701	6.52626	5.34134	25.61857	23.26823	21.37536	42.64044	30.07312	18.02378	16.68897	15.04021	15.45244	15.73869	13.94260	11.95384	51.97328	38.87389	26.57821
16660	7.75420	7.35943	5.65766	25.90618	27.09657	23.07706	43.06519	30.45185	18.69985	17.45871	15.04557	14.42210	15.21709	13.00719	11.45394	52.71229	40.56936	25.88049
16820	7.69504	6.96660	5.61822	23.86554	21.68221	20.34801	42.99566	29.54303	18.04016	15.38197	16.75310	14.37909	15.22028	13.29398	10.66184	56.67332	39.77387	28.63057
16990	7.19371	6.36388	5.11887	25.17108	23.60004	22.26380	42.93166	30.45201	18.36599	15.13455	13.28040	13.46589	14.78444	12.75661	10.78314	51.88629	37.82356	27.42803
17150	7.31642	7.07904	6.62087	25.51615	21.22612	19.47686	42.76020	30.01534	19.18213	16.56968	14.80422	15.73514	14.97658	13.16264	11.63473	53.75625	41.77613	28.29979
17320	8.57234	7.34030	5.33853	24.45369	22.48674	23.77106	44.09481	29.73757	18.54384	15.84006	14.84611	13.49689	15.88871	14.21050	11.93757	52.66897	41.30115	28.56742
17480	8.18924	6.83597	6.48442	26.60954	22.83997	20.10210	44.00095	29.83074	17.49071	17.34224	15.56494	13.79259	15.09161	12.95506	10.93032	52.01368	37.91009	28.89589
17640	7.14228	6.92269	5.27658	29.64499	23.19216	22.32212	42.98384	30.12000	18.61011	18.37619	18.80353	16.23637	16.49787	13.75488	11.97879	54.94011	38.25502	27.44111
17800	7.71633	6.75202	5.60551	30.25696	22.40633	21.86421	42.02844	29.70427	17.66047	17.39544	15.11629	15.81119	15.17641	13.14188	11.18172	54.36049	39.56593	27.48547
17970	7.88509	6.93140	5.92906	26.40310	21.55238	24.53139	43.74033	29.30875	17.85407	16.01697	14.08471	13.81069	15.53868	13.20135	10.85436	52.05079	42.60605	31.16220	30.00	6.3	0.00	7.67	0.01268	0.01289	0.01637	0.00782	0.00581	0.00638	0.00468	0.01266	0.01681	0.00677	0.00690	0.00879	0.01488	0.01093	0.01195	0.00219	0.00621	0.00869
18130	6.94231	7.18849	6.25499	26.07454	24.48084	22.42699	42.71317	30.91755	19.17099	16.98694	16.30175	13.15624	15.28280	12.89264	11.01340	51.60686	39.38409	28.58084
18300	6.86681	6.59612	5.31715	24.33391	22.53402	20.07174	42.31843	29.92384	17.67514	17.89388	18.74593	16.36740	14.89326	12.78403	11.31981	51.86286	37.94151	28.27523
18460	7.17060	7.88753	6.09958	24.63019	22.93638	22.28353	42.23505	30.65892	18.30959	16.13446	15.08284	15.47824	15.30125	13.01823	12.08994	54.22985	39.29307	29.43154
18620	7.35973	7.14249	5.16480	24.01207	23.03345	20.82920	42.13219	30.19751	18.25944	18.36947	14.86366	14.01520	15.75149	13.70282	11.80684	54.16268	38.36806	26.71556
18790	6.89805	6.60196	5.97871	26.82717	25.19789	24.07516	43.20321	29.37154	18.01309	18.16365	16.19877	20.15455	15.65828	13.41892	12.10605	55.70698	45.92315	32.71216
18950	7.01257	6.46975	5.65970	23.78356	20.56095	20.59823	42.48570	30.79493	18.60948	15.68720	15.34576	16.53628	15.10311	14.10648	12.07336	55.06404	39.87709	30.89869
19110	6.66432	6.62654	6.81630	27.45299	21.91702	20.54086	43.01344	29.84518	17.67026	16.68698	15.47046	14.60686	15.46572	13.69774	11.91334	51.71764	39.73060	25.93528
19280	6.90959	7.35625	6.17994	24.48962	22.81254	20.27785	44.18725	30.69840	18.46360	17.16627	15.13531	17.69062	15.32303	13.13257	10.88817	58.58380	40.86702	31.39886
19440	7.40579	7.03812	5.67279	24.81810	27.15967	21.53451	41.97831	29.04257	17.42522	21.19700	18.56221	15.38223	15.09541	12.59009	12.48788	50.98499	41.09713	28.72257
19600	8.24798	7.39391	5.46283	24.70695	24.95182	27.00525	43.20771	30.05955	19.03728	14.70767	16.15958	14.94945	16.05149	13.80301	11.68162	54.47721	40.98846	27.04028	29.95	6.3	0.00	7.53	0.01268	0.01289	0.01637	0.00781	0.00581	0.00638	0.00467	0.01265	0.01681	0.00677	0.00690	0.00879	0.01488	0.01093	0.01195	0.00219	0.00621	0.00870
19760	7.09263	6.55927	5.77482	23.19912	22.85563	23.39828	42.64506	30.76627	17.98707	16.01623	15.77329	14.53982	15.21159	14.37901	11.27066	56.38186	42.19559	28.63345
19930	7.28244	6.67966	5.47813	22.85002	23.40018	23.67790	43.65105	30.67436	18.99664	19.97539	18.34467	14.21338	16.11861	13.47828	11.19497	53.45298	40.94267	29.89986
20090	7.18244	6.84374	5.50896	25.50334	24.94794	18.91954	42.94344	29.51738	18.19965	17.92001	17.41808	15.48468	15.86686	13.60742	12.01846	54.34010	41.40050	29.95949
20250	7.24839	6.79991	5.30596	25.28134	27.42898	28.08480	42.36802	29.46567	18.40946	18.50331	18.01878	18.70896	15.05324	13.88130	12.22802	52.20960	40.87323	26.18723
20420	7.92737	7.56522	6.89385	24.85528	23.52540	22.74612	42.37756	30.39999	18.22616	18.83005	19.37293	19.50664	15.74749	13.92664	12.19595	58.15925	39.13896	29.21673
20580	7.85840	6.98782	6.51221	27.65433	26.47091	23.02550	42.35056	30.74553	18.58409	16.41415	14.37133	14.22912	15.95988	13.14752	11.93602	52.71023	39.39763	30.87543
20740	7.52288	7.82890	6.88781	29.47361	25.74552	24.90847	43.43134	30.07324	18.61634	16.49031	15.88340	13.96428	17.22303	14.41460	12.60969	51.79863	38.41706	31.30384
20910	8.03085	7.07140	5.49568	26.36232	22.74301	20.64777	43.44195	30.47546	19.39961	15.29816	14.43712	15.41962	15.65199	13.18143	11.95219	50.96930	39.74387	28.71738
21070	7.23242	6.65835	5.78212	26.45704	21.50059	20.52598	42.32680	30.06678	18.35891	18.24629	18.24986	13.69365	15.31717	13.42571	11.16008	54.14625	37.16646	28.62686
21240	7.11464	6.42438	5.43085	24.76527	23.89094	24.97290	42.73260	29.41397	18.61528	18.21340	17.04248	14.91977	14.96074	13.08058	11.90749	51.95784	41.52251	29.29369	30.00	6.0	0.00	7.58	0.01268	0.01289	0.01637	0.00781	0.00581	0.00638	0.00467	0.01265	0.01681	0.00677	0.00690	0.00879	0.01488	0.01093	0.01195	0.00219	0.00621	0.00870
21400	9.11895	7.94554	6.49686	23.75377	30.35794	24.11946	43.00659	29.76167	18.48319	17.32681	13.61043	12.41377	15.31238	13.21506	11.55328	50.15813	38.61068	28.74674
21560	7.09284	6.66670	5.82012	22.16655	20.74852	20.91592	42.47073	29.48204	17.73244	23.79731	15.98029	15.32910	15.30766	12.95577	11.21966	51.93774	36.84681	26.56070
21730	7.39412	7.05860	5.93432	26.75505	20.92906	22.64843	42.60976	30.45068	18.16083	17.12034	17.23752	13.23938	15.47951	12.70895	11.64869	54.51997	39.91407	29.63446
21890	8.11238	7.56885	5.77594	22.88481	22.51015	19.50653	43.10018	30.42764	18.42707	15.59199	15.56419	14.80279	15.32704	14.14316	11.36477	54.39938	38.78822	26.83017
22050	7.26361	7.12066	7.03679	23.83580	22.17161	21.44697	43.53165	31.79691	19.49220	20.55380	18.12155	15.47609	15.17936	13.03567	11.05608	56.84063	41.06156	26.89415
22220	6.52467	5.97863	5.25168	25.60983	25.14656	23.50381	43.00151	30.11415	19.74706	20.00913	15.70630	18.65657	17.40610	14.52200	12.23034	57.16270	39.69984	28.14240
22380	6.99603	7.28986	7.08007	24.03104	23.50519	24.10043	44.05756	32.14060	19.10799	15.50146	17.28667	15.90290	15.24002	12.66371	10.97192	54.96291	39.79188	28.23660
22540	6.88701	6.37838	5.89455	25.52544	24.42072	22.88374	42.77058	29.50405	18.20992	16.51110	15.44221	13.65988	14.77209	13.60908	11.58888	52.92168	37.30645	28.32333
22700	7.06515	7.68172	5.36745	26.06993	22.99696	23.85021	42.38123	29.74992	18.07774	18.15063	16.15050	15.24265	15.14744	12.48699	11.23191	51.92436	39.61338	28.29403
22870	8.21430	6.76861	5.46688	26.34911	25.35956	24.40973	43.54990	30.46810	19.38082	18.60648	17.03833	14.11056	15.99751	13.00035	11.59073	51.67325	41.95581	30.72301	30.00	6.2	0.00	7.71	0.01268	0.01289	0.01637	0.00781	0.00581	0.00638	0.00467	0.01265	0.01681	0.00677	0.00690	0.00879	0.01488	0.01093	0.01195	0.00219	0.00621	0.00869
23030	7.27838	7.54023	6.34465	26.54530	22.55982	21.73605	42.79772	29.66306	18.38343	17.99111	15.62792	15.11142	15.76663	13.18108	11.01074	51.64721	41.12971	27.36539
23200	6.68232	7.23740	5.67490	26.24389	24.12613	19.80608	44.04648	30.61937	18.12429	14.91106	12.75901	13.21188	16.83616	14.06472	11.88516	50.65753	36.97692	30.60179
23360	8.63178	6.79797	6.09422	27.51488	24.78120	25.32243	42.66594	29.34062	18.21477	16.39109	17.64863	18.77386	15.55846	14.09175	11.51530	61.66134	45.85740	32.24540
23520	7.41200	7.68519	5.69660	23.25326	20.32380	20.33131	42.40270	29.54864	18.78832	17.56942	19.96872	21.36095	15.50369	12.94680	11.57620	50.90195	39.33678	31.73727
23690	7.83246	6.41768	5.67947	29.15575	25.04154	23.78209	43.38326	31.49871	19.46897	19.35848	20.27903	16.66049	16.07752	13.38913	11.21903	55.68562	37.96995	25.45070
23850	7.39510	6.88664	6.13085	24.88892	20.49449	18.76299	43.41672	29.82619	17.85305	16.34580	17.52358	17.24764	16.38669	13.27393	12.09923	51.31470	38.31998	32.60306
24010	7.36533	6.44909	4.99404	25.07696	24.95692	23.26896	42.63327	29.56689	17.66259	16.15448	15.74455	17.07567	14.56642	12.25022	11.97623	52.80393	39.71102	31.50384
24180	7.36711	6.54167	6.08375	27.14234	28.19873	27.22694	42.41706	29.58953	20.29683	20.23046	18.45892	16.37334	15.72068	13.85122	11.93784	52.36831	40.75117	30.67923
24340	7.49726	7.36103	6.21684	24.73678	26.00086	21.73911	42.85759	29.96003	17.81822	18.51361	17.17416	16.29374	15.34039	13.23729	12.43516	55.30353	40.52435	28.38010
24500	9.43052	7.93526	6.70715	24.24102	24.19743	24.08017	43.79808	29.38642	17.57712	16.21186	15.07645	16.23978	15.00315	12.21637	11.73186	51.82550	38.58986	29.36800	30.00	6.1	0.00	7.59	0.01268	0.01289	0.01637	0.00781	0.00581	0.00638	0.00467	0.01265	0.01681	0.00677	0.00690	0.00879	0.01488	0.01093	0.01195	0.00219	0.00621	0.00869
24670	8.01143	7.43925	6.42598	27.23512	21.24080	23.36564	42.59888	29.60858	18.36511	19.39602	18.79255	17.07038	15.21622	13.96435	11.02468	54.37656	42.48906	30.57529
24830	7.28127	6.69905	5.42555	24.60565	20.70243	19.86377	43.58766	32.07723	19.29349	17.78038	16.09927	15.97268	17.34056	14.37330	12.24202	57.25908	41.59810	33.69281
24990	7.92748	7.19977	5.42351	28.68718	22.91465	20.26328	42.89593	31.11532	18.93752	19.56665	15.20148	14.42638	15.64935	12.85826	11.38147	54.95720	42.74446	31.27458
25160	8.50927	7.86971	6.39629	24.89473	24.42195	24.44001	42.62167	30.32616	17.69890	17.81798	20.17930	21.53742	16.18874	12.76760	11.29586	58.81009	40.70494	29.69242
25320	7.27554	6.58868	6.30664	25.15259	23.29702	25.82420	42.94968	30.11389	18.70252	22.84739	17.47351	17.24164	15.87959	13.47716	12.62143	51.85202	38.60579	32.09808
25490	8.75825	7.49064	6.22274	23.94908	25.91815	25.97584	42.86583	30.44349	19.05376	21.71602	21.35111	21.55251	16.58506	14.29806	11.50572	52.85705	42.67516	33.61714
25650	7.30044	8.37153	7.07982	31.83925	30.42928	27.27333	43.19172	29.91238	18.05362	16.25735	15.39681	15.95263	15.57759	13.48861	12.00373	60.66264	38.34503	28.91488
25810	7.23716	6.65521	4.85114	24.68355	22.29832	20.96936	41.92761	29.23014	17.95826	16.50252	16.01994	19.24697	14.78314	12.49335	10.96632	55.70943	51.74869	31.53784
25980	6.81744	6.03078	5.00627	32.59321	29.93353	30.85139	42.81419	29.39245	18.35851	19.94766	18.93256	18.48286	15.74942	14.65253	11.26040	52.72576	42.63198	32.28954
26140	7.41267	7.03351	5.49692	36.96631	25.24322	24.27181	42.69182	30.23092	19.09166	23.91660	20.71579	19.90832	17.22533	14.00578	13.04457	55.56646	41.21095	29.65782	30.00	6.1	0.00	7.71	0.01268	0.01289	0.01636	0.00781	0.00581	0.00638	0.00467	0.01265	0.01681	0.00677	0.00690	0.00879	0.01487	0.01093	0.01195	0.00219	0.00621	0.00869
26300	8.42024	8.15449	6.70753	28.81804	24.82833	22.11699	45.25081	32.59023	19.65920	17.36859	17.20614	18.68321	16.35573	13.02178	11.82272	54.80683	48.55906	31.17364
26470	8.17119	8.66563	6.54100	30.95177	28.49069	25.67213	43.94257	30.32934	18.51337	22.67323	19.09246	16.49484	15.69254	14.02425	11.93688	53.85454	40.25575	29.51307
26630	8.94390	7.37824	5.92349	27.10201	27.07103	22.79589	43.70900	31.11564	19.34745	17.93011	17.49722	15.51825	18.73328	15.45908	13.12156	54.89644	42.10662	31.87054
26790	8.48060	7.64696	6.31809	30.23289	26.61403	25.37895	44.26594	30.62223	17.92889	20.09100	17.48158	21.08646	15.09118	12.56975	10.90285	62.22264	41.92044	31.60314
26960	7.21018	6.82728	5.50084	34.75897	31.23822	27.71796	42.83570	29.93870	19.03509	17.97975	18.87024	19.51920	15.22200	13.71404	12.19643	55.80016	46.09191	31.35401
27120	8.42084	7.11279	6.64744	24.47456	24.94769	23.24079	45.19582	31.97003	19.13288	22.85022	21.34373	19.99376	15.97827	13.45628	11.74928	54.64754	43.18404	30.82685
27280	7.37452	7.68061	7.36442	26.80299	25.34511	24.09389	44.67192	31.14786	18.04131	21.63614	21.20524	18.10890	15.62852	14.34458	12.89071	58.04392	43.68066	30.05322
27450	8.90460	8.05034	6.82390	28.22333	25.51110	26.33035	45.06381	30.86137	19.13365	21.84976	16.54578	17.72141	15.51665	13.02325	11.78113	53.31003	39.23393	30.67546
27610	7.72747	7.45752	6.05391	25.81472	21.93492	20.90240	44.43066	30.85456	18.84102	23.56573	17.72580	17.20033	15.47493	12.87809	11.15176	61.89112	43.36887	32.67099
27770	7.53412	7.37231	6.07072	30.87430	35.06208	28.52927	44.95109	30.75370	18.22104	23.44390	23.45093	25.71397	16.27496	13.29488	11.40066	55.28171	44.33370	39.40717	30.00	6.1	0.00	7.54	0.01268	0.01289	0.01636	0.00782	0.00581	0.00638	0.00467	0.01265	0.01681	0.00677	0.00690	0.00879	0.01488	0.01093	0.01195	0.00219	0.00621	0.00869
27940	7.99565	8.60580	8.29076	28.93206	29.79707	29.64393	44.20031	30.59810	18.31203	18.47011	23.75056	21.41565	16.34001	14.31574	11.58516	54.47410	41.26365	28.53733
28100	8.37852	7.98173	6.37573	29.72387	25.44187	24.78068	43.01231	29.75190	18.91473	22.26002	18.14879	21.10201	15.07446	13.16443	12.55492	54.44827	46.27984	31.01161
28260	8.56387	8.63664	6.39854	29.95891	28.05316	21.87339	44.08646	30.80069	18.17848	17.07833	16.61669	14.62620	17.53116	13.65016	11.41416	52.90554	40.94262	28.83147
28430	7.96033	7.32866	5.04529	27.92535	24.97519	24.36901	43.28023	30.43770	19.14096	25.75803	18.95168	16.87278	15.52660	12.68921	10.99138	56.00843	42.98061	32.98790
28590	7.27337	6.58818	6.32327	34.30059	24.14864	20.09736	43.08886	30.21794	18.28027	15.76291	15.11442	14.63840	16.94780	14.40981	13.52602	51.78436	40.62557	27.88871
28750	8.77298	7.89499	7.95255	24.09361	22.26951	25.15351	44.81420	33.13335	20.44318	21.46804	18.12367	16.45250	15.42099	13.52674	12.54662	53.38865	41.03285	30.04759
28910	7.15437	6.30514	6.25072	23.00159	21.45610	19.45304	42.96497	29.71596	18.58550	16.57077	17.11214	16.61900	16.27003	14.08728	11.51650	58.79520	39.39204	34.46650
29080	7.27804	6.39281	4.89386	23.91038	24.68126	28.20744	42.00865	31.30287	17.45721	16.06409	15.17466	14.00710	17.13554	14.98044	12.50325	51.24577	38.57123	28.37371
29240	9.56856	8.43631	6.83753	27.06188	25.27152	24.49103	43.13851	30.28899	18.38102	18.12740	17.00581	20.30926	15.14389	14.32750	11.93603	56.13994	40.98063	30.58648
29410	7.11501	8.26349	7.05524	28.18448	28.60322	26.57054	44.28248	30.35898	18.45588	22.55703	22.77825	15.47603	16.67021	14.71588	13.73832	60.69965	41.96772	25.98050	30.00	6.1	0.00	7.58	0.01268	0.01289	0.01636	0.00782	0.00581	0.00638	0.00467	0.01265	0.01681	0.00677	0.00690	0.00879	0.01487	0.01093	0.01195	0.00219	0.00621	0.00869
29570	6.92234	7.20792	6.35054	22.33297	21.06044	19.64379	42.95078	30.52306	19.52219	17.25061	14.83961	15.62264	15.59052	12.86999	11.75267	49.97963	40.09472	26.31194
29730	6.81973	7.24784	5.77481	29.24595	24.90419	24.10026	41.85396	29.50887	18.25788	20.79036	17.02169	18.78898	15.45255	12.89292	11.74744	52.32592	42.22671	28.31757
29900	7.94896	10.14964	8.06511	27.77045	28.12102	26.54265	44.40449	30.29049	18.85203	19.70994	23.31589	14.76740	15.91370	14.30163	13.52884	51.40260	42.00726	30.46230
30060	8.01150	6.79449	5.17252	23.45888	23.75270	21.76712	43.87326	32.77103	20.93209	20.43378	15.88172	17.29118	17.59951	14.95399	12.13028	58.20796	39.31627	26.29045
30220	8.57954	8.71839	5.84501	29.96414	22.64073	20.33702	42.51718	29.38399	18.66093	17.59499	20.58153	18.51042	16.62661	13.37192	11.90706	55.45408	41.51321	28.62701
30390	8.30870	7.26616	6.80978	27.36966	25.17905	24.49720	43.40050	30.97229	19.33235	18.04102	18.90139	16.14747	15.62556	14.00272	12.63551	57.12808	38.88478	29.19075
30550	7.48095	7.06440	5.18724	24.65871	22.56022	20.11987	42.45445	29.03691	17.67992	15.59232	17.62344	14.12447	14.30292	11.84555	12.55840	49.64942	38.43431	29.03444
30710	6.37733	6.40462	5.19100	27.15308	25.35760	20.89081	42.31593	29.66507	20.01362	17.42226	15.75750	16.93265	16.11324	14.32744	13.48261	55.09890	43.62080	30.29349
30880	9.20890	8.53400	7.98897	26.66735	26.02667	24.91477	42.90036	32.37582	18.83289	21.22706	19.19570	15.68866	15.90886	12.84975	11.45765	49.44910	36.21108	32.75750
31040	8.97556	7.97360	7.54212	32.11400	24.88655	20.67293	42.01236	29.53914	18.66352	16.36260	19.96003	29.56443	15.98523	13.05443	11.11811	62.56662	43.54102	30.09537	30.00	6.1	0.00	7.68	0.01268	0.01289	0.01636	0.00782	0.00581	0.00638	0.00467	0.01265	0.01681	0.00677	0.00690	0.00879	0.01488	0.01093	0.01195	0.00219	0.00621	0.00869
31200	6.58199	6.42420	5.92750	28.07051	23.79978	24.15005	43.01514	30.64800	18.63160	20.44574	21.21053	19.08332	14.38899	12.77537	10.78385	51.26887	38.53205	26.75843
31370	7.20031	8.41012	8.15099	26.42179	27.44556	22.80428	43.49626	30.01279	19.68803	15.87412	14.81080	15.48612	17.75875	13.17322	11.53895	53.04585	40.41287	30.31024
31530	7.10636	6.77324	6.23854	23.61042	21.69088	20.02065	41.88736	29.63306	17.33145	13.72373	13.52338	13.28819	14.44664	15.65132	12.01484	52.21383	38.74233	31.64508
31690	9.66968	8.34546	7.74668	25.28940	25.70617	25.76179	44.98836	31.56299	19.20511	16.21701	15.50805	14.29689	14.74019	12.25319	10.79994	50.72655	37.41199	28.93815
31850	7.91880	7.83407	6.47268	23.40863	29.08397	21.65128	42.74248	30.27982	20.62426	15.67055	13.61796	13.77076	17.32718	17.60304	15.01097	56.89324	40.96693	30.40472
32020	13.16707	10.57786	8.50254	27.76486	21.60143	19.68838	46.69615	33.04598	19.68030	26.36491	19.03479	20.77549	15.82792	13.44956	12.08051	60.47570	54.12567	33.64204
32180	6.81182	7.88717	5.39050	21.56827	26.87049	19.43818	42.76726	32.63980	20.88948	17.96812	21.11239	21.58251	18.31893	14.66236	12.45737	60.94240	46.11329	31.05332
32350	7.56380	7.04061	5.93560	31.24022	28.88554	30.32028	42.27660	30.77932	19.09138	14.60959	13.60509	13.83049	16.45586	12.81417	11.59550	50.42279	37.51038	25.60075
32510	7.55263	6.80974	6.42470	28.48733	30.05011	25.77049	43.23632	30.01968	18.18408	16.81596	17.40456	13.52400	14.64940	12.41848	11.80065	50.84588	42.95985	31.47005
32670	6.96545	6.72899	7.08162	26.77283	24.30182	22.22929	44.05739	31.06592	19.79578	20.04915	22.34330	25.36153	16.12634	13.56345	11.33691	56.84233	45.03248	30.81453	30.06	6.1	0.00	7.58	0.01268	0.01289	0.01637	0.00781	0.00581	0.00638	0.00467	0.01265	0.01681	0.00677	0.00690	0.00879	0.01488	0.01093	0.01195	0.00219	0.00621	0.00869
32840	7.08308	6.57767	5.92339	29.36998	25.71494	27.71913	43.01471	30.02529	19.09644	25.59480	19.38712	16.01725	15.73654	14.42598	12.40652	59.73739	49.34390	42.37190
33000	7.29880	9.64187	6.45914	28.70501	22.07799	20.34459	43.93768	30.97551	20.65660	13.86957	13.53685	13.28892	17.15388	14.45024	12.63496	51.12359	37.08928	25.91723
33160	8.26147	8.04044	6.29120	25.82469	21.94150	19.48967	44.44885	32.04572	20.79726	16.60895	21.12091	20.17896	16.33702	13.80871	12.17992	55.31489	43.76646	28.23436
33330	7.61643	7.49131	5.73576	32.89197	30.36002	29.92411	42.75035	29.27763	18.05142	20.74135	16.85198	13.13792	18.06068	13.76389	12.63708	54.96462	41.72118	33.52412
33490	7.75505	7.81513	6.07555	24.97449	21.53940	18.71585	46.10979	31.41868	20.31159	14.36160	14.41910	16.12657	17.36937	14.44411	12.54539	58.75116	44.04025	30.10281
33650	8.36848	8.48115	6.27926	24.34750	25.33099	20.08593	43.05378	30.13486	19.06112	17.87078	19.93204	19.43456	15.03179	12.52018	11.29303	55.08307	42.58430	39.15289
33820	9.05265	8.72665	6.61222	30.05987	29.03363	25.37215	44.06492	29.68144	18.64626	20.84342	25.01654	20.64777	15.61196	14.80309	12.76888	61.24731	43.46205	32.34502
33980	7.31306	7.98487	6.53797	25.99434	24.50492	21.44138	42.97579	30.79980	18.17317	21.37347	22.23046	19.95255	15.56779	12.61681	10.78613	62.20891	43.29510	29.87788
34140	6.47920	5.98823	6.19333	31.04736	27.53108	23.76109	42.09991	29.70845	18.91057	16.54087	14.76706	16.63152	14.97711	12.61289	12.68498	58.64590	42.98739	34.10798
34310	8.81392	10.03719	8.06726	26.00144	28.35342	26.59946	43.37647	31.29202	20.97472	19.71683	22.61848	21.28216	16.38588	13.32325	12.26920	54.63958	39.45630	26.83142	30.00	6.1	0.00	7.60	0.01268	0.01289	0.01637	0.00781	0.00581	0.00638	0.00467	0.01265	0.01681	0.00677	0.00690	0.00879	0.01488	0.01093	0.01195	0.00219	0.00621	0.00869
34470	9.51237	7.66624	5.82116	24.63454	22.09142	21.39052	42.48381	29.15188	17.87707	19.49766	16.59979	16.82724	16.92321	14.86588	12.63791	57.14897	39.53266	27.34863
34630	9.39428	8.15411	5.49255	23.10021	20.37676	18.19309	44.12851	30.77285	18.83377	18.89313	16.30698	15.71272	18.13741	15.90395	13.49509	52.11767	42.95768	28.39622
34800	9.19353	7.08699	7.17357	23.02892	24.51122	22.83936	41.76263	31.99671	18.39521	21.72869	17.04736	18.57367	18.32722	15.51613	14.20933	55.50013	45.07751	36.90752
34960	10.01105	8.62753	8.46065	32.80050	30.79839	22.80966	44.66392	31.49774	20.22614	17.20620	18.75116	14.09266	17.49157	15.00922	12.05609	52.47857	37.88719	26.93994
35120	11.51576	8.89220	6.61976	27.25402	23.38595	23.07585	43.74725	32.07435	20.36755	16.97915	13.22844	19.67132	17.91377	14.65588	13.62854	56.30613	41.50655	28.23893
35290	9.21268	8.75918	6.73641	32.35406	22.62893	20.75629	42.27217	28.85710	18.73913	14.21397	13.40332	13.89372	16.37728	13.37696	12.23178	61.92823	44.44142	28.90963
35450	9.42232	8.45877	6.85599	26.09996	21.59946	24.84618	45.74200	33.66077	21.47338	26.26749	18.94422	15.28071	16.74712	14.83402	11.74608	65.75816	54.17275	35.41447
35610	7.94652	7.39619	7.50646	34.94101	37.80966	29.27011	42.31636	30.22365	18.88825	17.54634	17.29887	26.43684	14.95168	15.08102	12.58005	52.49271	43.48762	37.77232
35780	12.35122	9.53391	6.23051	39.04739	35.34551	27.59446	42.61983	29.36684	19.68658	18.88079	20.55264	20.58345	15.62259	12.65553	12.56754	59.15192	37.71640	24.94606
35940	7.43277	7.83528	6.81704	25.11434	20.27290	18.34882	43.73914	31.50611	21.22633	14.64373	12.84396	12.15207	19.42466	16.88143	12.85307	52.41736	39.41343	34.69972	30.06	6.1	0.00	7.66	0.01268	0.01289	0.01637	0.00781	0.00581	0.00638	0.00467	0.01265	0.01681	0.00677	0.00690	0.00879	0.01488	0.01093	0.01195	0.00219	0.00621	0.00869
36100	9.59563	9.36700	7.01089	23.61849	20.52861	22.63906	41.68316	28.68330	19.24861	21.37855	17.15262	14.33517	14.27955	12.61737	11.54766	58.45532	40.39054	24.84543
36270	6.87033	6.46817	5.65469	32.77561	27.99198	22.74936	43.48355	31.99385	18.94357	22.74098	24.40604	18.81604	14.97737	13.93546	11.61442	51.64671	39.55529	36.09827
36430	8.47798	8.77849	7.11725	29.47090	21.31260	18.33000	42.27949	30.21170	20.84525	12.81063	15.66344	20.04472	16.58848	12.38929	10.56956	52.74596	38.69563	29.39740
36590	8.08893	6.59388	6.03653	29.25226	27.08609	32.24973	41.42383	29.10534	19.12183	45.98387	22.15947	20.05008	14.89185	12.90792	12.62650	53.41413	37.80796	29.73815
36760	7.73007	6.69956	8.38140	26.42157	25.00213	24.48028	44.71506	31.38089	19.50233	18.00835	22.37008	17.05789	16.93714	14.86372	12.94271	62.73748	45.54580	31.11808
36920	7.98430	6.16342	4.73249	34.07456	29.11905	30.18380	41.95703	32.85088	20.34186	20.85919	13.63498	14.75648	20.20775	16.00328	13.61952	49.38020	35.77854	25.07692
37080	10.19955	9.08402	7.76867	24.82241	23.11350	22.88931	43.30914	33.23961	20.71011	18.58547	14.82525	15.53462	16.29011	13.47613	12.22624	58.17647	42.85003	30.41810
37250	7.87641	8.40586	6.82501	27.24963	24.31091	21.48877	41.80713	29.89193	20.18131	15.64258	16.91869	12.54082	16.43439	13.42815	11.60058	51.96399	37.25267	31.38604
37410	13.42880	10.21942	8.66572	39.68450	34.15196	26.99410	44.55949	30.66983	18.29139	21.73140	25.57876	23.97423	16.30209	17.04187	11.45237	57.11037	40.08960	27.74756
37570	9.09417	8.83555	7.11853	22.39612	25.55225	19.18658	42.90085	31.06373	21.05386	17.38570	13.67226	13.73300	18.46526	14.40830	11.52486	66.07712	51.69201	34.58744	30.00	6.1	0.00	7.56	0.01268	0.01289	0.01637	0.00781	0.00581	0.00638	0.00467	0.01265	0.01681	0.00677	0.00690	0.00879	0.01488	0.01093	0.01195	0.00219	0.00621	0.00869
37740	10.72066	8.37738	5.71151	30.85815	27.62018	37.20330	44.55982	35.01472	21.14728	22.56223	21.48472	28.57062	16.41960	14.68282	15.15578	56.77742	42.43966	41.88392
37900	9.70890	10.43756	10.34685	37.48291	36.72237	44.33331	46.58853	32.35365	21.97344	20.87702	23.61860	22.03813	18.36360	15.39124	11.33954	53.22807	46.96761	35.32332
38060	9.98673	8.44376	9.14103	31.06207	25.03098	23.87725	43.25398	31.23674	21.93018	17.01390	14.16856	13.36646	19.23131	17.89862	16.08330	52.54323	38.07538	26.32265
38230	9.73017	10.43261	10.23448	27.11529	20.17710	18.42171	43.58946	29.25102	17.50625	16.49206	15.92519	15.41282	15.70039	13.27546	10.61487	57.87945	50.63795	36.43287
38390	6.67644	6.27569	6.89800	29.16356	35.03719	22.92027	41.60858	29.21365	17.31447	19.38157	16.35431	15.65145	15.06188	13.86035	11.53749	59.97827	44.08090	28.80728
38550	7.40083	7.49136	6.47156	25.22964	19.85257	17.15405	44.27503	32.20319	21.76767	16.70614	14.22062	34.97782	17.66459	17.69679	15.28207	63.17966	54.41574	37.39754
38720	11.81543	10.67365	7.40118	54.03336	52.78167	48.68815	43.53574	32.81225	19.20876	31.22515	42.09358	42.93451	19.92789	17.24209	16.36431	59.90370	49.59394	39.91203
38880	11.62626	9.38967	10.24210	28.35915	25.90180	26.22247	50.12831	38.58952	26.06398	36.05131	37.10901	27.65709	19.89147	17.00223	13.05259	57.41700	50.15374	40.90494
39040	11.95315	11.65031	13.13200	54.81911	52.99565	47.98112	45.23929	34.17552	24.42186	29.76724	31.09837	57.45469	18.97029	17.95695	14.65461	81.58310	73.18154	60.07973
39210	8.37090	9.19962	7.30503	42.87368	45.35567	33.09385	48.33486	32.48614	22.38908	30.50795	16.67689	18.22197	18.07444	17.68476	15.10191	65.88810	53.84426	46.87820	30.06	6.2	0.00	6.93	0.01268	0.01289	0.01637	0.00781	0.00581	0.00638	0.00467	0.01265	0.01681	0.00676	0.00690	0.00879	0.01488	0.01093	0.01195	0.00219	0.00621	0.00869
39370	13.76118	9.35819	11.59412	37.21236	27.12882	27.40222	49.21837	34.53143	22.88527	25.69577	54.30725	33.11560	19.89182	18.49490	14.74723	79.37965	59.34172	37.36461
39530	9.01266	9.96758	10.31165	52.74037	32.62940	23.56815	43.50579	32.56850	18.51587	17.28764	21.59512	28.64865	17.27764	16.01270	18.60359	85.51070	64.22182	46.90156
39700	9.91004	9.34748	11.08392	40.08877	42.72027	42.30956	47.83941	30.43259	18.14075	27.86500	36.12238	36.03095	21.06217	19.74743	16.36525	67.30872	54.09787	42.00033
39860	14.21490	11.40957	10.12903	41.25943	47.86171	41.73568	45.18686	34.05436	22.46147	14.79194	16.81868	19.36669	22.28811	18.66832	21.53607	65.23428	51.53323	34.35348
40020	13.31075	13.57525	14.24133	39.63065	58.96681	41.82512	44.51085	32.57072	21.88940	37.57170	36.81847	34.32862	24.59086	25.93900	16.88579	80.59662	60.70843	62.09606
40190	10.53747	11.16990	9.65355	68.99085	43.54158	68.20782	46.78718	32.64563	21.86674	67.07283	51.86246	49.07070	19.22608	15.67637	13.34315	72.44818	45.08207	47.86578
40350	13.24312	14.02697	9.50124	43.52070	27.14853	25.86899	49.48028	32.96801	26.36056	21.62106	23.39430	34.88146	19.84887	19.09996	17.30281	57.71295	37.83976	33.54929
40520	10.05151	9.31771	7.65741	27.82249	45.51744	36.62071	44.09814	30.78154	17.64074	48.95989	28.62306	37.21214	20.96037	16.84516	16.68355	82.53818	55.79205	42.57859
40680	9.89466	11.54482	9.25836	68.66200	52.13285	40.32333	43.50401	32.24679	22.04412	30.16169	20.30700	22.67110	17.43268	12.96536	10.38760	61.03718	51.56455	40.68519
40840	11.31349	10.20246	8.27545	28.36151	28.60094	24.58109	46.32957	33.28533	25.12040	34.02027	25.10634	27.34185	22.86547	19.67076	17.54841	65.08317	49.74332	41.97620	30.00	6.0	0.00	7.55	0.01268	0.01289	0.01637	0.00781	0.00581	0.00638	0.00467	0.01265	0.01681	0.00676	0.00690	0.00879	0.01488	0.01093	0.01195	0.00219	0.00621	0.00869
41010	10.67252	10.55811	8.23353	33.27992	43.04280	50.76170	44.73725	30.77853	21.00183	21.38563	19.11404	24.67850	20.38595	18.37128	17.09420	75.46452	60.54626	47.01204
41170	13.05040	10.99012	10.06866	36.71307	39.84804	44.53034	47.17674	34.35164	24.99970	44.67607	50.55264	45.75740	14.38228	12.07288	11.84467	83.27891	62.38929	59.93318
41330	12.85734	11.49949	9.61166	61.85447	53.96888	69.20328	46.62431	33.70660	27.16956	35.02119	30.78875	42.88261	25.03037	19.87559	17.89025	78.38840	68.33884	37.51380
41500	11.99273	11.15534	9.64566	42.50260	62.39976	59.28747	46.56611	33.32538	19.08281	52.01683	21.10892	18.80007	15.80473	15.53853	12.62451	65.25928	51.69622	60.17284
41660	10.70207	9.54234	8.83055	55.79837	38.84505	43.88141	47.82435	40.47871	22.81837	63.28402	36.27312	49.07724	19.78754	16.81882	14.05555	83.12624	103.02021	76.30773
41820	12.17092	11.52471	9.32681	68.68052	56.89587	31.20755	45.60554	37.52757	21.83798	25.71246	13.93090	14.82096	17.83117	16.78497	14.13078	80.13642	58.22502	63.96096
41990	12.67995	10.44737	9.62097	86.99681	71.47414	62.56850	49.88115	37.12731	23.46401	45.82565	37.72929	25.89056	22.70860	20.05925	15.26885	84.94945	49.47978	40.29224
42150	10.42013	8.72800	6.96506	68.47297	41.37545	24.88164	46.90296	33.61750	19.55224	15.40575	33.56061	39.06632	18.15897	17.80176	16.18730	78.20147	57.97522	90.74009
42310	10.59206	9.08140	12.47626	94.04804	82.44333	53.44582	50.72039	34.45952	20.93601	37.99843	40.07814	78.39702	16.89150	14.40473	16.24152	98.63221	86.62278	78.69255
42480	14.37756	12.35473	8.27155	67.22067	54.11715	39.71230	45.12488	35.55895	28.74523	40.38697	40.75211	21.51009	22.68203	21.09982	15.60512	64.73926	51.83512	39.73456	30.06	6.0	0.00	6.77	0.01268	0.01289	0.01636	0.00781	0.00581	0.00638	0.00467	0.01265	0.01681	0.00676	0.00690	0.00878	0.01488	0.01093	0.01195	0.00219	0.00621	0.00869
42640	10.48470	11.56563	9.34922	30.67885	34.91179	59.47981	44.20743	35.14266	21.73553	31.25735	28.73620	27.73720	17.63326	17.48453	15.18364	65.91408	52.39128	34.43665
42800	8.35732	7.09035	12.71184	26.09076	24.23239	21.07930	45.53293	32.87275	20.47167	23.83179	23.14300	22.27059	18.21558	15.33890	13.69095	66.58660	51.08582	45.10014
42970	12.76198	11.03169	8.62412	41.58513	32.29508	27.33075	43.87128	34.33192	23.74187	32.17810	78.48756	42.49877	19.24319	18.17028	18.10133	91.01007	62.05061	46.77949
43130	14.01624	12.59948	14.91059	28.81376	26.62745	27.18658	45.52639	32.10704	20.82561	46.28322	48.74468	86.44651	20.20498	17.10557	13.66781	67.78619	56.39253	47.72403
43290	14.22602	10.44985	16.15729	44.93400	34.74809	35.74330	45.72446	30.83314	21.61114	26.89516	31.51139	44.36978	18.00826	18.35450	15.54548	57.97790	39.90930	27.25895
43460	16.13970	10.09618	8.55024	38.90066	31.99662	26.30660	44.34783	35.46802	21.70515	27.75579	26.41721	47.09735	28.45779	21.28698	17.22533	71.93937	60.14145	41.44069
43620	13.57541	14.58947	10.07158	29.53367	21.45436	35.95313	47.41827	32.81124	22.60457	43.63101	32.44476	38.80365	19.23459	17.67268	17.05044	92.83329	98.46491	90.20792
43780	14.69995	15.24101	14.32372	50.35912	53.04176	30.37119	56.23952	36.26055	21.03390	73.48336	41.61213	41.33445	22.30888	20.74709	20.51647	89.46856	90.94155	92.91338
43940	14.28047	11.07758	7.39287	54.90233	36.94684	34.01448	45.87225	32.07967	21.01805	55.28078	67.45210	43.49301	17.47028	16.96911	12.27331	86.52057	77.16519	52.36098
44110	14.36485	11.90095	10.41348	47.20781	77.59142	52.39313	45.30681	35.81723	21.88691	79.01371	54.48401	51.65173	22.02123	18.65047	17.75463	79.69605	80.34524	103.15149	30.06	6.1	0.00	7.64	0.01268	0.01288	0.01636	0.00781	0.00581	0.00638	0.00467	0.01265	0.01681	0.00676	0.00690	0.00878	0.01488	0.01093	0.01195	0.00219	0.00621	0.00869
44270	10.60432	8.13403	6.41165	65.49972	47.83134	80.54994	46.81816	34.93146	24.26793	63.67984	37.56902	34.80043	21.33294	14.90500	14.43086	74.14608	70.69253	57.73581
44440	8.75422	11.18657	12.43050	87.80333	71.09098	48.07148	45.26426	34.85924	19.66156	32.11097	22.99899	38.30147	19.36824	15.75236	14.02860	74.02338	59.09332	69.41351
44600	12.08687	11.39780	9.16316	39.46204	30.64474	39.61281	46.97057	37.78645	27.00893	29.73962	26.93442	31.07569	23.99962	20.46676	20.10175	84.76853	86.47322	84.92345
44760	13.43099	14.11515	9.90102	61.28910	66.82647	44.29038	49.95878	36.11918	24.82993	59.52827	30.11992	40.87052	21.57091	20.07170	14.87171	83.27817	78.76397	89.98813
44930	9.86311	9.33482	10.01474	66.37614	48.26283	48.71745	45.23459	34.88980	21.20537	34.91692	38.54749	23.87416	19.56252	20.50104	17.43956	79.48327	49.26958	34.43021
45090	11.37351	11.15623	11.58789	49.80143	88.92734	58.57349	48.00685	38.85028	23.89508	64.93015	51.70386	54.75004	21.22963	18.73188	14.57275	77.74817	61.61190	55.39210
45250	12.37306	10.77957	12.32362	43.91876	25.97952	29.45474	44.76939	33.52386	23.98361	46.24401	37.06246	50.36827	21.16914	19.40480	16.48189	93.66710	103.81923	87.84403
45420	16.90269	10.92806	9.09039	96.19066	83.68408	88.02629	43.29739	31.31479	19.88453	41.72828	27.25146	61.55185	17.29155	15.67516	16.81827	73.31720	70.66223	35.90342
45580	9.47062	12.65253	9.69136	42.94019	65.49249	50.84191	50.57840	34.85263	18.62863	40.83085	35.58059	32.23514	18.26752	16.23287	11.51448	77.66006	61.52052	39.08224
45740	10.16140	8.90064	7.98401	32.93085	35.31021	35.56557	44.07649	32.88449	20.35504	26.61404	15.58006	22.42855	16.76374	12.96494	10.35152	58.50897	41.89577	27.40647	30.00	6.0	0.00	7.56	0.01268	0.01289	0.01636	0.00781	0.00581	0.00638	0.00467	0.01265	0.01681	0.00676	0.00690	0.00878	0.01488	0.01093	0.01195	0.00219	0.00621	0.00869
45910	8.84715	10.93984	11.36342	34.18428	36.05224	30.48906	44.44129	30.72211	20.32775	25.61614	22.23984	33.97629	16.21319	14.48390	12.81374	64.38684	43.99578	34.66717
46070	7.00343	8.07437	8.21869	56.02988	44.65376	45.17181	42.51077	30.22324	19.43989	29.33678	24.24212	31.19711	17.85892	16.82766	13.61595	66.47397	77.45863	34.77676
46230	10.76544	11.16252	9.91372	35.19754	39.16954	45.71958	44.70480	32.65652	20.12021	24.33652	21.75317	26.25096	17.21585	17.38907	14.75068	56.59786	39.19950	25.50013
46400	10.65629	10.87139	7.31630	45.09591	34.61479	59.70896	47.66427	31.21994	21.17008	32.24377	21.63136	17.28175	23.33437	22.75583	14.58181	70.30199	45.68804	32.13502
46560	10.70810	9.64940	8.74256	30.44954	44.16939	48.04129	42.17004	31.22948	21.46687	32.26986	25.36440	27.14113	16.87058	15.72319	15.15540	73.43414	54.37028	39.41101
46720	8.59859	10.60052	10.55505	23.04484	20.80254	20.24513	46.08928	33.04860	20.76113	33.86502	23.67848	26.02215	17.54602	15.55819	16.01352	52.69736	42.20732	33.92263
46890	17.34962	9.28844	8.11530	62.52702	34.64756	36.05571	45.98833	32.60302	21.44776	34.74420	25.48554	37.42799	16.18084	14.18710	12.46588	68.78452	55.84772	39.59240
47050	8.16695	5.90829	4.35932	63.27008	53.98210	24.31085	42.31442	29.83862	18.97499	17.37859	13.69453	16.84909	16.61769	15.55830	12.59923	56.27237	38.82654	26.94838
47210	7.47317	9.86998	11.56232	24.15451	31.92670	43.33117	43.50135	31.23744	19.71975	31.55735	36.01815	27.22582	18.21726	14.73636	13.02170	61.22347	56.60469	42.40653
47380	7.88973	8.12953	7.44659	27.97058	29.52732	32.49682	46.83808	32.89545	21.77027	36.28853	26.01556	18.48774	18.87839	18.16619	14.70499	70.82323	51.40003	34.65894	30.06	6.1	0.00	7.52	0.01268	0.01288	0.01636	0.00781	0.00581	0.00638	0.00467	0.01265	0.01681	0.00676	0.00690	0.00878	0.01488	0.01093	0.01195	0.00219	0.00621	0.00869
47540	9.27612	8.60442	9.91848	32.49178	33.48738	25.00182	44.60566	32.87937	20.71648	15.90588	16.31263	18.23164	15.34995	12.53185	14.13366	53.43566	37.11521	24.28833
47700	9.90589	9.09003	8.92445	26.96002	31.94989	31.92582	43.98178	35.41489	20.63959	31.24035	24.55752	21.56144	17.51790	16.91441	15.63276	68.29535	51.10682	40.19631
47870	8.53145	7.92256	6.16773	24.29522	22.59406	24.64879	42.38416	30.92582	24.73888	30.14508	16.13900	16.07150	18.23166	19.07773	13.01374	52.40229	38.82560	39.50621
48030	8.07102	7.70169	6.93436	24.09367	21.18938	25.03367	45.98848	31.15137	18.43193	29.59874	29.87125	26.96445	14.09721	11.77724	11.02875	64.67377	46.08714	43.35340
48200	6.73848	5.90663	4.78152	32.14293	51.89831	55.85977	44.31777	30.03420	19.83536	32.53693	25.08142	21.15871	22.29390	20.85230	16.35701	53.06921	39.66806	30.79388
48360	12.05018	11.77527	9.89652	38.50847	30.36384	34.62307	43.74565	35.53303	25.76663	29.86513	25.14834	28.91053	19.57517	17.48080	11.67380	88.65272	59.52147	38.33800
48520	7.95134	8.08216	8.23431	40.07644	48.13583	31.97956	45.08383	33.05188	24.40747	30.68765	32.33502	29.53272	17.60159	15.37486	16.56329	68.75237	39.76742	25.22151
48690	13.46405	12.96794	11.97194	43.05528	27.24538	36.39976	48.11044	34.80725	23.19521	31.68172	25.52472	39.19075	22.45424	15.35176	13.29583	96.69645	84.78620	75.64662
48850	10.10422	11.02997	9.00636	39.48632	48.83480	40.51852	46.95300	32.13871	17.94778	39.92448	56.25861	52.09470	19.10730	14.87274	16.24576	83.13203	94.32890	72.84782
49010	9.14478	9.52319	9.64029	58.26654	84.09418	87.33000	47.44208	31.90705	20.91350	40.81942	46.98488	48.51585	24.54614	19.32049	17.55111	92.06531	89.06007	78.71456	30.06	6.2	0.00	7.57	0.01268	0.01289	0.01636	0.00781	0.00581	0.00638	0.00467	0.01265	0.01681	0.00676	0.00690	0.00879	0.01488	0.01093	0.01195	0.00219	0.00621	0.00869
49170	11.43540	13.27274	19.13250	71.57960	42.74108	40.79538	48.01242	36.41434	24.08372	26.06383	31.67799	32.06626	20.67613	22.49567	18.21940	55.12111	40.72374	39.65791
49340	12.33044	10.49127	15.72476	42.43051	64.73826	61.32524	46.70685	34.24295	22.44925	38.67805	20.45264	28.92217	24.18182	19.52302	17.39062	81.07919	83.07694	69.37482
49500	15.19274	10.73039	10.97759	48.45362	43.23592	45.94734	47.01065	35.89589	23.93968	19.31485	19.37666	26.21131	19.71954	16.32783	13.62533	62.35167	48.84062	47.10369
49670	9.52746	9.11225	7.95362	42.48105	37.34856	38.30660	44.20488	30.47526	18.47174	74.74535	59.52205	58.78718	17.53056	14.49171	18.66432	80.36460	76.60070	61.16354
49830	13.35324	10.92810	8.88692	54.08927	58.56983	29.63747	44.40161	33.75054	20.69415	17.92172	16.12678	40.37380	22.74690	18.68851	14.26261	82.97675	65.41565	58.02041
49990	8.41928	8.80178	6.53334	64.88010	94.16538	82.88506	42.32960	30.77721	19.40241	34.85923	28.28203	22.40260	16.32582	13.85796	10.60374	64.45584	76.49170	41.99563
50160	6.25398	6.01927	5.25378	50.20070	32.31510	22.21577	42.88462	30.18185	18.73481	22.79383	18.23047	24.90518	15.44490	17.19408	12.48920	65.26017	49.23037	31.23202
50320	8.81233	11.20316	10.77171	30.54654	21.82420	20.66556	48.44361	40.80309	21.67333	32.76609	22.50502	22.80580	21.16264	17.80508	15.33780	69.34023	62.13957	47.17557
50480	12.36531	11.93771	7.62429	56.71446	44.33268	30.35907	42.94337	28.52346	16.58989	30.49039	31.41756	34.58585	16.69844	15.05173	13.23731	63.60330	46.06327	49.67355
50650	9.11851	7.41221	7.81733	49.27254	39.33865	32.76526	45.45728	31.18536	19.81458	24.87936	26.10181	27.43426	16.64879	14.16781	12.16980	71.59598	62.42033	35.23330	30.06	6.2	0.00	7.56	0.01268	0.01288	0.01636	0.00781	0.00580	0.00637	0.00467	0.01265	0.01681	0.00676	0.00690	0.00879	0.01488	0.01093	0.01195	0.00219	0.00621	0.00869
50810	7.67680	8.17415	7.71151	47.82712	61.65913	59.03708	48.21578	35.85144	18.90440	54.92912	40.03112	44.39680	18.91993	18.75809	14.38620	85.89909	61.00571	42.05848
50970	9.11655	8.05241	8.74056	24.75894	21.04572	20.53608	47.45822	34.31543	20.77397	16.85155	35.35776	23.02255	20.96260	18.48262	16.81313	68.92460	57.29881	36.83876
51130	15.61996	11.87560	11.52423	29.44955	38.03825	36.35420	45.54859	33.38494	19.85298	27.06528	19.82858	21.38730	21.84772	16.24808	12.38608	69.52856	51.90752	44.47071
51300	6.02651	5.42017	6.04686	29.09243	29.29354	28.45927	46.82821	32.06159	19.17618	28.40696	15.29110	15.22133	16.09744	16.56424	14.45485	58.12333	45.83521	28.22442
51460	9.62720	7.63452	5.90622	26.92958	28.00613	26.73648	47.51389	32.45485	18.37408	26.02048	13.32555	12.09708	16.13417	13.05385	11.04878	54.16030	41.45241	26.79468
51620	8.85232	10.00236	8.23209	21.29038	20.18060	21.73168	43.82009	31.98083	20.96829	21.47870	22.85401	26.93595	18.37525	14.96069	13.56741	54.61396	48.97924	36.93762
51790	8.16292	9.23871	8.40620	34.00602	31.71834	32.64620	44.57545	31.63853	19.50177	30.33183	22.28034	15.48581	14.92820	14.55478	11.46005	71.98627	61.38732	47.95078
51950	8.40158	9.03362	8.84853	34.47237	39.01203	39.56288	51.10497	35.23535	21.90992	27.13273	26.88217	24.08244	16.93551	15.80781	14.44567	60.03650	40.88513	29.60899
52110	9.89510	8.97192	6.62207	31.56964	30.14198	23.25197	45.97694	33.68822	20.26751	34.27125	33.41438	24.41844	17.41848	14.66174	14.56497	61.40629	70.24668	45.59516
52280	7.92357	8.54948	6.26527	40.64036	33.29779	23.29799	44.72923	28.81853	16.91374	23.48460	17.12455	16.41024	14.87444	13.16703	12.60009	63.99019	36.79470	27.42136	30.06	6.1	0.00	7.61	0.01268	0.01288	0.01636	0.00781	0.00580	0.00637	0.00467	0.01265	0.01681	0.00676	0.00690	0.00879	0.01488	0.01093	0.01195	0.00219	0.00621	0.00869
52440	10.66850	10.55868	9.94058	30.68703	29.83069	24.36365	44.88942	31.71914	20.22715	16.03823	19.26423	30.25102	16.99238	13.61745	11.63779	72.49304	54.24788	31.53491
52610	8.61022	6.96847	4.99023	29.49138	24.00530	26.22699	42.35994	29.76234	18.47216	20.89569	14.02564	13.67470	15.49387	11.97902	13.04653	49.93339	36.50721	23.94532
52770	9.40992	8.61400	6.56717	22.38682	20.29832	20.14333	43.80561	31.64126	21.26827	30.28764	17.96745	29.56819	17.82925	13.71355	11.04477	62.92988	51.40041	42.23001
52930	6.30476	5.87705	4.56386	30.83473	46.48641	34.02975	44.34058	29.47264	19.95526	35.74700	27.66697	19.25294	15.34261	14.06036	13.89051	58.92228	55.02465	42.21535
53100	10.09152	7.60819	4.97293	34.99795	33.95222	28.76146	45.66705	33.01839	22.62158	16.87411	31.24217	26.04059	18.13877	16.80502	14.83174	71.26299	58.44719	62.60963
53260	9.96826	9.14245	9.96835	46.68498	57.57900	38.46428	52.42765	32.46693	24.52536	36.69441	34.80406	36.96913	20.20777	15.93237	13.75537	68.24824	54.11397	39.39192
53420	10.26094	10.95123	9.51374	49.57097	42.85148	48.40412	42.28404	30.67027	19.16325	23.59009	61.05647	72.51888	14.50764	12.88723	11.37294	79.37229	78.00940	62.45603
53590	8.96429	8.10968	5.70869	63.02761	47.95458	39.52089	48.02299	33.73268	23.18772	21.76417	25.51070	33.65712	22.24399	19.15729	18.21221	66.07175	36.03288	25.07285
53750	13.75654	11.69693	10.22599	23.77553	21.96450	39.72775	45.07095	34.62857	22.37194	33.99271	30.43018	55.69127	18.88545	16.15768	14.89957	91.69373	67.05488	31.65538
53910	11.15793	10.10516	8.83990	62.32754	46.67022	39.03526	42.78101	30.57260	19.14968	35.28904	29.84960	33.08376	15.11994	16.98978	18.47797	78.57050	81.48244	56.25499	30.06	6.1	0.00	7.61	0.01268	0.01288	0.01636	0.00781	0.00580	0.00637	0.00467	0.01265	0.01681	0.00676	0.00690	0.00878	0.01488	0.01093	0.01195	0.00219	0.00621	0.00869
54080	16.36586	12.29519	10.86564	40.08130	40.85468	31.11448	43.63623	37.99489	21.84543	21.90091	28.83631	28.19047	21.43080	17.30886	15.24190	57.21519	46.32576	53.97646
54240	12.87203	11.46856	8.99279	26.18184	39.01811	27.06226	49.12564	34.29193	22.55400	18.63642	17.88635	16.17068	17.23427	14.76241	13.05078	49.77960	37.54181	30.59270
54400	7.94806	8.46130	4.38201	35.46626	38.18488	28.12758	41.68725	30.52865	20.23745	16.62151	16.96368	21.41058	19.99955	19.26160	14.88363	60.24469	47.04084	36.68365
54570	10.93863	7.98456	6.61767	29.73182	27.68080	51.54263	46.18888	33.04309	20.62963	49.23856	53.30908	32.26861	13.93558	15.41366	11.73834	72.49168	57.33048	67.94080
54730	8.51206	7.31213	7.29263	36.77172	28.53225	35.39506	42.95978	30.49145	22.65600	35.74463	26.22092	19.94877	19.56891	18.77323	15.63274	58.09358	42.69353	37.75353
54890	12.18775	11.02927	13.30021	28.44007	20.40050	19.24546	48.81206	35.93526	22.63126	15.11664	20.01810	23.27271	18.75183	15.59259	12.80827	56.15932	60.29410	44.91016
55050	10.27563	9.63535	5.37884	35.74085	32.16885	36.45244	43.61101	28.55192	16.98899	59.59920	29.80479	22.25271	14.81716	15.55744	13.53085	70.76491	42.08571	33.25326
55220	10.23516	11.76399	9.72691	40.01003	49.46131	43.20630	46.62916	33.72638	19.62028	25.36211	17.91993	21.25823	17.30668	15.74578	16.92731	78.28612	63.68461	54.09786
55380	13.84413	8.58218	8.82876	53.14647	45.62541	50.06921	50.42443	35.11138	20.70684	45.05162	28.12355	29.79027	17.50138	14.60069	12.61472	50.39226	36.27378	24.35999
55550	8.66917	8.85193	6.32484	23.00454	22.03998	20.91432	42.46258	29.78033	17.03962	19.25707	20.46997	14.69599	13.55401	13.02568	14.23878	56.57738	38.63645	25.57379	30.00	6.1	0.00	7.59	0.01268	0.01289	0.01636	0.00781	0.00580	0.00637	0.00467	0.01265	0.01681	0.00676	0.00690	0.00878	0.01488	0.01093	0.01195	0.00219	0.00621	0.00869
55710	12.24054	10.17000	6.34764	21.54947	19.31462	17.48994	43.40911	30.84922	17.66075	21.51728	20.07271	20.42166	14.73420	14.66876	14.16836	52.46604	39.67128	29.00699
55870	10.65964	10.42254	9.20805	38.30431	42.94061	34.96200	43.83785	30.00937	18.82253	23.12516	26.52568	28.30629	17.41208	15.04169	14.10850	66.55050	51.78198	46.81637
56040	8.55372	7.48374	7.13262	27.87824	29.93118	28.89134	42.53503	30.55166	18.30790	17.61904	16.78906	17.75647	14.97396	14.48193	12.22510	50.81508	35.90573	24.38151
56200	9.92127	8.06995	7.39344	23.88572	24.13896	21.17536	46.81022	34.51525	22.45401	14.03592	12.49490	11.40444	20.13026	17.85747	16.87646	57.62152	39.42796	28.87785
56360	12.00500	9.74099	8.07719	32.21145	26.50626	21.20791	44.48017	30.07360	21.73052	16.06073	19.27849	33.46564	14.73264	13.86976	11.90380	57.93404	50.57112	33.80063
56530	8.01308	7.35240	5.99579	31.82237	43.05068	38.53148	42.53180	28.37238	16.47597	22.43255	15.92868	21.88468	13.77610	11.34395	9.94766	55.66118	42.04495	28.98844
56690	9.95428	9.92435	8.89418	31.17927	29.57179	25.45270	43.92288	31.25417	19.21186	24.92512	26.14269	24.20237	17.02845	15.39045	12.68387	51.96300	36.64194	29.14475
56850	7.14402	5.74605	4.50931	23.08266	22.41000	18.24407	41.22682	28.14806	17.98502	12.80315	14.51680	17.16616	20.06715	14.73026	14.93836	51.29370	38.20422	29.08630
57020	11.39767	9.39375	7.96322	28.29422	51.02161	49.75173	44.14626	33.84823	25.17691	36.69853	32.87965	38.10427	21.03027	16.28675	14.76694	80.47141	60.17057	47.94827
57180	11.06814	10.70238	9.80309	39.50042	28.22302	25.76855	44.39203	32.82757	23.13257	38.20852	18.10699	12.60544	16.43590	15.28115	12.85402	49.83792	35.56871	23.77074	30.12	6.1	0.00	7.65	0.01268	0.01288	0.01636	0.00781	0.00580	0.00637	0.00467	0.01265	0.01681	0.00676	0.00690	0.00878	0.01488	0.01093	0.01195	0.00219	0.00621	0.00869
57340	8.89581	7.98384	6.95775	24.36847	30.12743	23.03512	43.69899	29.65094	18.54231	29.90111	32.90281	38.24840	19.01149	17.90045	12.96299	70.94141	74.43905	51.97994
57510	7.84760	8.26994	7.26285	65.59453	42.05640	31.13266	45.26108	32.97557	24.40781	33.54514	21.15078	29.15838	17.99532	15.73594	17.68344	79.26601	37.16697	24.63635
57670	14.64412	13.99200	10.89734	34.14353	35.66823	30.53799	45.77245	32.11798	19.06996	40.21303	26.39524	26.42191	18.86040	17.05153	13.97390	54.25504	45.40496	44.27700
57830	6.13442	5.74854	5.54859	36.16305	42.29179	52.47638	45.18500	31.44276	22.23663	33.83060	28.30492	34.21657	19.60397	15.87441	12.60715	56.31259	42.63462	26.61436
58000	10.58753	11.22941	9.03639	26.23202	28.27363	30.17909	44.82118	31.09199	21.07298	21.03994	21.95635	18.90082	21.99524	16.20959	19.07959	48.94925	35.75467	25.05170
58160	10.13384	8.08728	12.92001	45.83293	57.74399	26.61468	42.26145	29.80373	19.62923	47.26593	33.28238	28.30439	15.12107	18.48579	16.89546	75.45485	74.89059	54.15000
58320	14.06274	12.01168	9.95961	38.65223	52.60999	65.51430	42.88224	31.69431	21.24298	46.62344	26.81997	21.92479	19.11444	17.40991	17.30785	73.71414	51.76364	36.42103
58490	7.42090	7.12333	11.28070	31.07844	28.60676	21.81267	45.65702	33.25705	21.30841	33.19837	35.84649	24.71672	17.99816	15.69411	12.64187	71.07685	64.60595	48.26922
58650	8.30375	6.95541	4.32883	61.72838	46.21041	40.45886	45.36986	29.47296	22.22784	61.82653	51.80945	67.59096	19.24587	15.62140	15.03656	79.58018	54.60850	43.24539
58810	10.47143	11.65565	10.27196	27.35427	29.30649	30.60099	50.86258	35.98128	24.62402	20.54568	21.41221	30.00354	19.64052	17.75859	15.95731	50.00510	38.67787	29.09167	30.12	6.1	0.00	7.57	0.01268	0.01288	0.01636	0.00781	0.00580	0.00637	0.00467	0.01265	0.01681	0.00676	0.00690	0.00878	0.01488	0.01093	0.01195	0.00219	0.00621	0.00869
58980	11.35419	10.37509	7.18259	25.17941	33.72432	38.46614	42.93992	28.50085	20.48973	32.48567	25.69978	29.76633	16.50624	14.45039	13.20009	72.69931	60.68228	41.54558
59140	9.65240	10.44324	9.75942	42.07927	36.41555	32.34559	46.19324	33.91978	19.69451	26.39326	43.21462	40.85445	16.49677	14.67800	12.67331	65.45202	56.27153	33.72831
59300	12.57613	11.32085	7.78381	50.13536	37.79707	34.24960	43.70160	31.09243	22.04632	37.82780	33.72519	44.76980	18.87391	17.50742	16.07821	76.33505	59.20232	44.29481
59470	13.16220	12.03918	11.37952	33.02809	42.51337	40.38844	45.60756	34.67502	21.45849	26.02679	21.54076	19.02151	17.45893	14.56291	11.49127	49.81347	41.95183	39.98770
59630	9.48261	9.81384	5.32623	45.86612	32.44678	25.29432	41.61386	29.58120	19.08725	38.37240	30.77144	16.70529	15.02872	16.77756	11.11628	49.33694	37.58032	38.76682
59790	12.69335	10.63092	8.67790	30.67200	21.09537	20.69354	45.97214	33.68193	19.74065	33.18769	25.08177	21.65976	17.89915	15.60425	13.96780	78.00559	73.92357	85.73969
59960	13.47269	8.37713	8.82941	42.69540	52.78132	51.12106	46.86256	32.15021	22.25743	28.80156	23.60087	24.38681	16.35282	14.80733	13.89288	98.61982	78.23302	56.38802
60120	9.55952	8.90672	6.51648	38.49267	23.29298	18.11583	41.36651	28.32868	16.18350	19.75345	16.15868	13.43026	16.53663	15.02318	12.61362	57.37155	55.69297	36.62360
60280	7.91866	7.66094	8.80145	26.84847	21.47950	17.64731	42.34883	30.87348	20.05682	31.02149	27.51205	21.38582	15.86183	12.21794	16.52808	76.80758	42.85620	32.35839
60450	6.92078	7.14670	5.57170	38.47005	45.93330	40.55638	46.96349	36.82599	20.84657	34.06822	17.39662	16.90857	18.68997	20.38658	14.58304	58.86088	38.48667	34.32867	30.06	6.1	0.00	7.57	0.01268	0.01289	0.01636	0.00781	0.00580	0.00637	0.00467	0.01265	0.01681	0.00676	0.00690	0.00878	0.01488	0.01093	0.01195	0.00218	0.00621	0.00869
60610	11.93519	12.75505	9.88806	40.42025	27.37320	29.42275	45.69825	34.80904	21.29820	56.29351	40.49270	38.20516	16.80709	20.53460	16.99385	81.57009	65.81811	42.44748
60770	10.79607	8.20344	7.30947	33.67268	31.42208	34.20454	43.78124	31.64274	22.92801	42.33349	37.31716	43.99939	24.68204	18.25621	19.43461	71.82694	54.67174	61.79046
60940	11.18814	9.00284	13.67122	33.28741	34.26929	36.10932	51.20227	36.60770	25.79435	36.82354	27.05133	23.09984	21.85781	17.01125	13.87989	66.89673	69.82163	61.70012
61100	9.84368	9.00578	7.82559	36.14358	45.87021	37.89717	47.04181	30.36343	20.88247	29.39723	26.62195	28.06235	18.89574	15.10319	12.53360	67.23162	57.16176	35.56547
61260	10.10847	8.54694	6.70887	25.64128	24.08249	26.37194	44.42968	29.19382	16.93106	16.79915	17.56215	22.23692	20.20907	16.38129	10.90654	49.92027	35.03087	23.83411
61430	14.61611	13.70308	12.46226	20.40554	18.10347	16.18154	50.63431	32.84528	26.52961	11.65495	10.76176	9.89686	20.81255	17.23088	17.31687	68.62459	73.21700	65.77835
61590	16.84642	11.99194	12.59523	54.02990	57.48627	68.21651	47.69683	32.77072	21.57652	43.48259	31.72086	35.92462	24.71984	17.68336	15.08797	125.00814	93.11529	77.90214
61750	12.58516	9.71019	6.69702	50.81137	78.10230	80.58537	44.14851	34.25592	24.83486	63.44308	62.13437	49.52277	19.10650	17.73207	13.41012	69.67425	45.83636	37.74026
61920	8.83255	8.28702	8.03187	58.25569	51.72819	80.10290	44.99828	32.88256	20.87596	80.61126	56.78497	45.03481	15.46517	13.47524	12.31546	101.98229	63.38189	62.30931
62080	7.34966	6.87947	6.21438	84.95469	78.81809	67.29008	41.05319	28.29477	16.83652	12.87699	11.24682	10.35236	13.26148	11.07077	11.92971	48.44784	34.91113	23.28897	30.12	6.1	0.00	7.65	0.01268	0.01289	0.01636	0.00781	0.00580	0.00637	0.00467	0.01265	0.01681	0.00676	0.00690	0.00878	0.01488	0.01093	0.01195	0.00219	0.00621	0.00869
62240	12.96231	12.58178	8.04796	20.54515	18.05091	38.66979	51.12160	39.45596	28.51444	71.88501	39.20793	32.63312	27.56495	23.91727	20.28607	73.47830	61.57451	83.19929
62410	13.89268	11.50064	11.93224	103.57610	93.22563	93.00012	47.10387	32.48471	21.22521	92.90827	92.38038	79.38323	13.44251	11.06856	9.36665	83.90248	94.16768	84.92009
62570	8.36610	14.48743	10.55730	52.15398	85.30044	44.98799	47.03523	32.87854	20.11159	24.46985	26.77832	50.16839	16.05521	17.95098	17.02492	96.10750	62.68928	52.04455
62730	13.98532	16.11786	10.63912	52.61753	51.63447	77.84306	46.42586	29.02684	18.45488	39.19271	28.76530	36.82950	18.60554	16.06094	12.81015	55.87384	56.23243	38.03269
62900	6.90475	7.19910	9.54666	20.50528	19.51121	19.64206	46.59655	35.22598	17.61170	12.80148	15.04703	14.40444	18.33294	19.19093	14.92725	65.12160	42.14769	28.38907
63060	8.90504	8.04749	7.60854	32.70558	38.75762	28.44999	48.91689	38.14402	21.76681	38.77089	44.29927	31.75173	19.21910	17.45345	15.61379	74.38527	60.82864	58.35022
63220	11.63871	11.76102	11.50915	80.15203	87.06974	93.13257	46.03319	33.75282	19.62010	91.85467	62.44689	55.85094	17.16579	13.30882	12.20632	68.17542	75.78488	55.47340
63390	11.05692	11.14944	11.68596	29.54130	32.59334	33.68674	44.50774	31.48095	19.51402	35.32627	32.98399	27.13904	17.49372	17.42341	13.25689	71.39829	49.67788	31.69212
63550	11.37052	10.44380	8.62230	34.86000	36.59966	30.77174	53.04521	31.99026	22.32629	18.33068	19.93844	34.16422	17.43248	15.84821	15.11367	62.11406	42.60453	27.42213
63710	9.97173	10.87212	10.54627	26.55827	32.80224	27.53604	44.33594	32.38531	21.77133	29.41226	20.57945	15.72742	17.31016	15.29684	15.85254	57.46354	51.84369	53.20575	30.12	6.2	0.00	7.61	0.01268	0.01289	0.01636	0.00781	0.00580	0.00637	0.00467	0.01265	0.01681	0.00676	0.00690	0.00878	0.01488	0.01093	0.01195	0.00219	0.00621	0.00869
63880	10.16047	8.83522	8.57061	49.67779	50.46665	78.94116	45.99189	32.48748	25.49113	37.47475	46.70451	58.26328	17.24384	14.68936	13.40867	77.73570	59.14849	38.76591
64040	8.79653	7.89509	5.92546	56.59929	38.55576	23.92727	41.98988	33.29878	19.99931	23.50632	17.65715	19.63655	15.95204	14.83986	14.20718	67.29517	50.19640	34.39545
64210	9.18841	12.29533	9.01834	28.83572	24.64094	34.24581	44.94400	34.53139	21.96184	29.76153	25.29839	31.29826	18.37835	15.34505	14.51115	75.66484	51.13856	32.65161
64370	10.58516	8.18149	8.14692	28.48623	28.00607	26.36722	42.37982	30.58369	19.09652	34.57272	20.56504	20.74085	16.47620	13.06533	9.80095	64.58325	40.85757	27.00656
64530	5.62603	5.92231	4.97186	32.64575	31.71772	27.51359	42.21889	31.15325	20.38655	17.25025	14.93082	21.67929	20.25022	18.92737	15.99278	60.34813	41.23648	27.20766
64700	10.44909	10.39114	10.46344	24.01328	22.68864	23.13863	45.80421	34.56466	22.68108	21.73122	14.42676	14.10237	16.69312	14.50837	10.50134	51.33249	41.01787	27.43680
64860	9.80290	8.65206	7.57363	22.13792	19.39328	18.10389	43.58533	29.89266	17.54761	14.88044	15.66165	25.83518	15.46443	13.76304	12.01015	58.68956	41.92168	31.92583
65020	6.33337	7.04370	6.95730	23.35149	24.66778	23.32356	42.70804	32.92118	19.42150	16.25377	15.39497	13.03526	14.92083	12.02376	10.86177	48.82216	34.92717	23.22821
65190	7.54763	7.84358	5.82706	38.53791	35.73014	34.70584	41.68110	28.82354	17.15773	38.32021	42.28936	35.49432	14.35256	11.74115	9.67555	64.41835	64.90745	40.81829
65350	8.80455	10.33061	12.02201	23.86721	33.75388	43.96632	45.18807	30.70534	20.81626	14.60458	23.31988	23.86347	16.15802	15.93536	14.20763	69.32968	54.39266	46.87796	30.12	6.2	0.00	7.68	0.01268	0.01289	0.01636	0.00781	0.00580	0.00637	0.00467	0.01265	0.01681	0.00676	0.00690	0.00878	0.01488	0.01093	0.01195	0.00219	0.00621	0.00869
65510	10.52784	8.45976	9.34903	32.89430	40.39704	47.84480	43.16261	31.44957	22.35878	41.38652	55.86882	57.67678	19.42012	17.03723	15.91338	91.69108	135.59855	71.28928
65670	11.45786	12.24753	8.06409	80.83599	117.35538	72.74581	40.43787	29.76090	19.05912	58.56415	46.33465	54.53166	17.47745	19.89175	16.13432	95.56873	100.94119	61.22317
65840	14.20712	13.94854	11.36446	38.05415	34.67960	39.65078	46.45501	30.92681	19.34966	69.08743	35.07441	23.54197	17.93104	15.68699	13.11685	125.01312	78.07282	55.08600
66000	8.61762	11.59645	12.69730	29.32596	22.61552	26.57434	47.25604	31.65010	19.40036	30.48289	22.63301	19.20784	17.64699	15.66710	14.37940	58.96015	43.15209	38.89177
66170	11.48909	10.13041	8.85290	39.27734	40.44794	42.15532	41.32765	34.21222	22.56615	39.96380	31.71140	33.79966	19.72356	16.86659	14.38667	81.83824	47.91280	30.90395
66330	8.07057	7.93011	7.27318	28.08704	34.32941	46.04031	42.97687	31.04593	22.20981	24.03929	32.12667	31.30825	17.18832	15.39552	16.92071	69.95981	42.15421	25.84706
66490	12.14820	12.73747	10.74505	23.34287	23.32114	24.24302	48.12686	35.21893	25.64251	18.23366	12.55767	10.92912	20.45119	19.08348	14.43085	87.87740	73.65449	47.73464
66660	8.65668	10.37694	8.10739	53.08401	56.34472	56.74913	42.26187	30.49836	18.36248	43.91580	19.83038	18.74703	15.34506	11.64811	10.43123	61.07722	57.14047	41.84783
66820	6.35778	5.40095	4.13614	21.93884	19.20626	16.83801	41.63143	29.74031	21.11997	13.00211	44.64854	29.18690	15.82773	14.45908	17.36158	69.95981	71.88243	64.30765
66980	11.52372	9.73722	9.43429	56.66640	40.25769	37.30351	44.56133	36.21527	20.92493	71.58887	66.37252	55.19671	18.41965	18.41316	14.22418	80.12867	83.83907	41.14421	30.12	6.1	0.00	7.56	0.01268	0.01289	0.01636	0.00781	0.00581	0.00638	0.00468	0.01265	0.01681	0.00676	0.00690	0.00878	0.01488	0.01093	0.01195	0.00219	0.00621	0.00869
67150	9.12613	9.72615	8.68836	24.53713	20.29793	17.37237	41.90489	29.43830	19.45299	19.58241	20.03544	47.84518	17.77270	16.24256	15.58229	82.38823	44.64117	42.03642
67310	9.59409	9.57685	7.39024	36.24151	37.66294	35.96300	46.18721	30.39513	23.39737	40.81177	36.62994	29.96851	22.46632	19.69351	17.34461	80.70686	56.87982	46.74461
67480	13.38767	9.19297	7.89633	51.97210	42.23117	37.48873	43.46334	31.83921	25.12084	31.51740	27.68870	46.17260	19.15609	16.79063	12.36745	74.97557	58.93366	35.04013
67640	9.43852	8.39851	6.06316	23.30857	17.93213	16.13390	44.16213	33.00490	22.57390	13.52280	12.24565	10.90199	18.12482	14.93125	13.37000	58.19395	47.82347	36.24793
67800	8.33560	7.03478	6.69393	33.93241	23.56319	17.60498	43.65470	30.42822	18.08412	17.93192	18.50658	15.93753	17.57423	12.76178	10.50973	49.74247	36.59473	25.09356
67970	6.42636	7.26043	5.78670	20.64441	31.45134	46.49479	41.93221	28.63620	16.88475	29.59124	17.99057	21.70522	16.22577	15.63114	12.10504	65.35357	56.23039	42.11525
68130	6.25230	5.93124	5.81581	27.31771	36.04343	26.91023	44.81359	32.42569	21.53596	14.14102	11.23541	10.63854	15.77457	13.08879	15.56392	54.80419	38.57401	23.42669
68290	9.02322	8.35219	5.91137	20.22030	17.93910	16.37314	42.45963	29.58127	17.58125	18.16749	14.67295	13.88631	14.69761	12.89731	10.96540	51.13175	42.05096	25.43840
68460	5.68164	4.77116	3.67666	95.19372	61.95870	37.64315	43.63847	33.56731	26.32008	69.37796	68.86801	68.38886	18.38880	19.09677	13.04424	67.08490	45.98177	41.46111
68620	7.61856	10.82965	12.17959	80.21280	63.91701	82.14848	49.23015	34.85197	22.48720	25.86200	17.21838	15.88889	16.69499	15.16159	11.51160	60.47749	54.52477	43.15208	30.17	6.1	0.00	7.66	0.01268	0.01289	0.01636	0.00781	0.00581	0.00638	0.00467	0.01265	0.01681	0.00676	0.00690	0.00878	0.01488	0.01093	0.01195	0.00219	0.00621	0.00869
68780	8.34937	7.96659	10.95603	33.15649	23.73283	17.59510	47.70307	29.62229	17.96451	17.91032	17.85047	26.73186	15.39834	15.06112	11.48188	48.35152	39.66950	24.79207
68950	7.25293	6.50250	6.82353	22.81409	21.99347	21.64402	45.03765	30.04387	18.11259	15.10295	16.51883	29.94217	17.10201	12.98464	11.22935	55.30644	42.09098	33.84625
69110	7.05336	6.84656	5.61631	36.63216	34.34314	27.54885	43.51305	29.01900	17.60792	13.92648	12.86139	19.07546	22.41862	15.36493	20.32439	62.86766	39.34404	35.54405
69270	10.56764	8.79862	6.74228	21.81868	22.80605	24.93197	41.39012	29.47755	18.61106	24.42237	21.18262	18.58478	15.99099	12.52431	9.40177	72.13107	56.88585	48.08891
69440	5.32707	4.70970	6.28340	63.42406	64.46520	62.97272	45.65803	35.61406	21.23598	48.09754	26.41835	24.41814	18.37621	20.00505	18.71610	62.55268	54.58218	50.82473
69600	19.32666	10.61430	9.94811	51.13108	39.55395	35.74225	53.04788	35.63409	24.05311	33.91414	40.20809	62.17824	16.05257	16.17840	14.93535	94.10332	101.58698	96.08312
69760	10.22543	9.04217	6.33848	48.14073	33.69026	48.05830	42.92851	28.09336	18.38566	14.35389	28.16526	26.59134	17.42978	15.29898	12.46935	66.04221	54.32787	33.68218
69930	7.38555	7.92045	5.96481	28.21165	24.75609	24.79984	41.86198	30.02691	17.49446	24.21395	16.08494	15.76132	13.95473	12.15874	10.23199	51.48292	36.16947	27.32598
70090	5.82206	4.79147	3.65862	26.96047	22.93013	18.72852	40.29182	27.98294	16.27878	34.24403	18.89445	15.64510	19.56161	15.33065	19.15770	67.64802	67.61955	110.92587
70250	20.35062	17.45277	24.44227	100.85646	94.16516	87.40433	54.59440	43.08508	33.60204	58.03321	86.85084	74.42582	30.29803	21.98335	25.31886	94.56735	103.01777	47.46957	30.12	6.1	0.00	7.57	0.01268	0.01289	0.01636	0.00781	0.00581	0.00637	0.00467	0.01265	0.01681	0.00676	0.00690	0.00878	0.01488	0.01093	0.01195	0.00219	0.00621	0.00869
70410	16.20229	19.58494	15.58879	44.36085	30.52301	37.86143	53.95205	39.24415	25.19239	83.57382	45.55412	50.24044	18.32715	17.35030	15.83184	79.47381	111.61979	63.67187
70580	13.38784	12.75100	11.72908	55.35284	55.63234	60.75400	51.79473	38.43466	28.26628	48.28455	48.97941	60.83555	23.65393	22.53864	22.14484	83.11603	69.19998	52.58196
70740	14.08294	12.47251	10.18522	58.34772	61.69196	42.26439	50.80944	40.60015	28.98208	33.01941	35.56726	35.07875	24.83606	17.79158	17.54096	69.87829	61.91534	50.49019
70900	15.47283	12.97088	12.94230	45.37682	35.73351	30.51981	47.38894	34.22179	21.63860	25.55396	28.79804	19.38435	17.74279	14.89374	12.44673	73.83264	55.84653	40.63351
71070	12.54895	10.91017	9.90790	57.32913	41.13537	29.32900	46.53195	34.78179	21.99439	29.48319	26.20280	23.47319	19.70101	17.92242	14.11496	60.89440	54.79017	49.37382
71230	14.10598	9.71852	6.91327	44.62230	35.00579	28.73113	48.38991	35.46214	21.16343	20.42771	24.88807	14.46795	19.74494	16.49135	15.87923	51.95398	38.75538	27.02729
71400	11.17660	11.70184	8.78667	27.84819	26.00732	23.99173	45.26036	31.10480	19.74416	17.80778	14.17864	18.67724	16.29258	15.33651	12.07032	60.22748	43.41169	33.10345
71560	9.66894	11.59752	9.87931	29.44815	23.34077	26.35590	45.96318	30.67656	19.48147	14.90884	16.01001	19.93222	18.30235	17.24699	16.36641	55.79600	40.71447	37.76138
71720	11.15435	11.49791	8.51184	30.66221	22.47557	20.72425	43.34566	30.39328	19.28282	20.06226	18.60881	13.93203	16.68003	16.45320	14.59230	55.34291	41.32972	33.54130
71890	9.90698	11.36804	9.51226	29.97480	23.46225	20.14362	45.66755	33.63288	24.83497	15.69525	16.17050	18.73359	16.53328	14.06480	12.13900	53.65769	40.90591	27.05607	30.17	6.1	0.00	7.60	0.01268	0.01289	0.01636	0.00781	0.00581	0.00638	0.00467	0.01265	0.01681	0.00676	0.00690	0.00878	0.01488	0.01093	0.01195	0.00219	0.00621	0.00869
72050	9.50181	9.77549	9.73755	26.54814	22.48951	20.96699	47.17670	33.35627	21.18767	17.10666	16.34543	13.83578	18.36972	14.47511	12.16217	52.64397	39.46379	28.55025
72210	10.74250	10.93525	9.74864	24.82849	24.62876	22.39710	45.37363	34.09739	22.25592	18.68906	18.38610	17.03620	19.11528	17.40953	15.07261	56.08815	45.44077	30.71287
72380	9.78723	8.74412	7.68123	26.44370	25.09642	24.37698	44.82878	31.65773	19.93605	19.09133	19.20441	17.38325	17.53203	14.82182	13.26515	56.32442	43.18725	31.41442
72540	10.71222	10.33892	7.61012	26.71634	24.45322	23.12023	44.11153	32.37671	20.86630	19.19378	18.60631	17.92059	17.19987	17.06193	15.52040	56.66272	44.21675	31.46324
72700	9.74031	8.91861	7.66318	28.23529	25.51098	24.24336	46.37232	33.39595	20.95043	22.08892	21.51906	19.53481	16.78813	15.01728	13.81397	57.48018	43.11865	31.74282
72870	8.86551	9.54401	8.98861	32.46596	28.14202	24.45175	45.36505	32.21595	20.18915	19.37851	19.52425	16.78221	17.07763	14.97262	12.72319	57.98268	43.59894	30.33693
73030	8.77710	8.15084	6.12702	27.99531	26.30291	25.40036	43.76218	32.82147	20.01304	21.40729	20.65345	17.99782	17.61853	14.46849	11.98726	56.67347	43.33670	29.84324
73190	8.17305	7.98745	6.91276	27.35939	25.97639	24.98494	44.00057	30.54679	21.16113	18.36499	17.26193	15.22053	17.91680	14.66346	12.73678	55.73898	43.50542	29.72528
73360	7.68693	7.38567	7.00929	26.98600	22.72396	21.63371	42.64214	30.19252	19.79687	19.43396	19.56439	17.23901	16.19203	14.21042	12.23906	53.93212	42.09271	31.38029
73520	8.82318	7.49147	5.96244	24.94395	23.33152	22.77772	44.36905	30.13687	19.03688	19.68455	18.38957	16.24901	15.51055	14.59947	12.63561	54.96594	42.08652	31.68928	30.12	6.2	0.00	7.64	0.01268	0.01289	0.01636	0.00781	0.00580	0.00638	0.00467	0.01265	0.01680	0.00676	0.00690	0.00878	0.01487	0.01093	0.01194	0.00219	0.00621	0.00869
73680	7.94830	7.97247	6.29002	29.66434	23.33400	22.41185	44.40796	31.54016	19.50449	16.35404	16.98859	14.94264	16.02819	13.80318	11.48517	51.94274	38.72974	27.28503
73850	7.85701	7.33624	6.18055	23.70006	22.16374	22.39726	43.27940	30.64970	19.08665	16.01754	17.14280	14.47960	15.21184	13.32987	10.89212	51.84264	40.80957	26.75367
74010	7.86922	7.56106	6.31482	29.60401	25.64929	22.68522	43.89142	29.75442	17.69757	15.97462	15.10833	17.34893	15.35245	13.43512	12.11863	54.83970	40.16634	28.71701
74170	7.58760	6.91531	5.75528	27.09338	23.31242	22.21372	44.35160	31.73674	19.20110	16.41273	16.14608	15.80294	15.65652	13.22962	11.47440	54.72388	40.87323	30.88264
74330	8.58892	7.43687	5.97558	26.97633	25.20529	24.57398	43.78281	31.79346	19.88466	20.92492	19.06403	16.97741	16.83331	14.32093	12.91542	54.38428	41.52986	30.96650
74500	8.28590	7.82421	6.21549	26.10633	25.97197	24.18807	43.40202	30.77177	19.39102	17.86491	17.67311	16.67060	15.93120	13.72202	12.58860	54.49620	42.75184	31.49125
74660	8.53784	7.36716	7.14289	27.57811	26.99889	25.72960	44.31484	30.62586	18.85626	19.68316	17.72102	17.15258	15.79485	14.03278	13.08857	55.86745	41.73740	30.35452
74830	8.88882	8.25800	6.32245	29.32705	27.36083	23.81819	44.54137	30.82750	19.34358	20.88999	20.64799	17.65654	16.44458	14.25287	12.27451	58.53788	43.46062	31.23255
74990	8.36010	7.60595	7.46353	29.27464	26.38181	21.70489	43.44087	30.70056	19.24617	20.47473	17.69999	16.94497	16.10555	13.97383	12.64263	55.93721	41.73824	29.36612
75150	8.22846	7.09692	6.21196	27.34785	23.59923	22.71251	43.36700	30.81639	19.67209	18.49206	18.58230	16.00052	16.11035	13.51889	12.17371	53.61432	42.35052	30.58221	30.12	6.1	0.00	7.61	0.01268	0.01289	0.01636	0.00781	0.00580	0.00638	0.00467	0.01265	0.01680	0.00676	0.00690	0.00879	0.01487	0.01093	0.01194	0.00219	0.00621	0.00869
75320	7.60094	7.07822	6.61518	28.29538	27.55378	25.28069	43.63591	30.10324	18.69077	18.89190	18.94102	16.50445	15.16870	13.47444	11.07309	56.07215	41.32746	27.76998
75480	7.42689	6.44408	5.21861	25.51710	23.12665	25.05924	42.78176	29.83009	18.88949	17.92450	16.92035	15.86558	15.07281	13.16370	11.78108	52.94025	41.44161	29.70471
75640	7.59912	6.72781	6.38352	26.61874	21.91832	21.55257	42.89174	29.56002	18.02814	17.52874	15.77380	16.56706	15.27626	12.82153	11.04064	53.18014	38.58966	26.63437
75810	7.15733	7.43634	5.41773	26.28102	23.07114	22.70261	44.30588	29.84995	17.64316	19.47958	18.88440	14.96534	14.96164	13.47534	11.39847	51.33545	40.52938	27.67075
75970	7.76203	7.35082	5.49352	25.54438	25.07064	22.08821	42.34560	29.55344	17.83316	14.83429	14.80046	16.61043	15.48614	13.38434	11.65530	52.42769	40.39281	29.73777
76130	7.51236	6.86333	5.89735	25.06175	24.10090	21.06016	42.43644	29.57275	18.02618	15.65303	15.04394	15.92471	15.14738	13.62449	12.38678	52.83708	42.56504	31.04793
76300	8.04802	7.58491	6.03181	24.97758	22.89617	19.19834	43.19626	30.06475	18.26103	14.97327	16.35748	15.92298	16.12050	14.18567	12.70471	53.59848	39.35271	26.86081
76460	7.73009	6.92771	5.75866	24.38079	22.61260	20.89262	43.58370	30.14013	17.92155	18.42663	16.30573	14.74567	14.60367	12.25647	11.02438	52.17750	38.26381	29.39574
76620	6.31623	6.13520	5.00194	25.58082	24.62172	21.35291	41.91703	28.88261	17.19085	16.12014	14.02579	13.90109	14.85676	12.44131	10.60016	53.25630	39.34214	28.16657
76790	7.55575	5.66956	4.68093	26.56488	23.84270	22.55277	41.25854	29.05643	17.89274	15.03560	14.50743	19.12681	14.49320	12.88891	12.21848	51.07535	38.23389	27.82444	30.17	6.1	0.00	7.58	0.01268	0.01289	0.01636	0.00781	0.00580	0.00638	0.00467	0.01265	0.01680	0.00676	0.00690	0.00878	0.01487	0.01093	0.01194	0.00219	0.00621	0.00869
76950	7.00655	5.83999	4.80643	23.03427	20.63217	19.10392	41.70390	28.73396	17.28057	16.05414	13.35850	12.13569	14.32101	12.11305	10.71198	50.49626	38.76413	24.80718
77110	6.61371	6.25923	4.74950	22.17043	21.33541	19.59332	42.07227	29.48890	17.49877	15.88088	13.64141	12.53136	14.63836	12.11315	10.55575	51.64441	37.69166	26.05395
77280	6.90811	6.28119	5.18211	22.86862	21.43939	19.93681	43.43674	29.87380	18.02704	17.13786	13.80137	12.89235	15.08466	14.02992	11.71776	52.15837	39.70484	27.33100
77440	7.67851	7.40308	6.59756	27.44585	24.51703	19.96228	42.65894	29.79103	17.80801	15.23325	16.39082	17.58513	15.67709	14.67616	12.40810	54.00353	44.23183	34.18291
77600	8.40481	7.91486	7.04489	30.37291	24.12641	19.53572	44.95526	32.86305	21.97793	17.04893	15.98087	19.98342	16.93340	14.11270	13.81783	63.40821	46.67265	44.83422
77770	10.30532	10.54586	10.83148	40.10735	40.20992	34.36528	47.69703	33.56520	19.81480	30.55757	30.07619	45.30107	18.98178	18.88346	20.45796	76.04189	56.29670	52.28806
77930	11.95741	13.63571	12.00288	90.69777	81.38059	27.95595	51.17897	35.32156	23.71486	37.07720	35.65632	21.82838	22.00853	21.89464	20.40224	94.57506	91.17225	55.75319
78090	13.54609	12.32832	12.16838	63.62877	72.69464	96.79649	49.45219	41.22444	26.72629	66.10331	67.49515	84.40670	21.48636	22.60226	20.22116	82.97336	63.91297	46.64096
78260	13.37297	12.78088	9.54058	32.02577	32.08096	36.64665	47.34294	34.37987	18.55991	62.74947	40.41926	61.26139	18.97083	17.37306	15.31639	118.08881	70.87530	62.32959
78420	14.69470	12.06028	11.02517	56.70829	51.95147	51.84646	45.81334	35.42437	24.98079	24.19066	25.60226	25.58460	28.26634	15.64540	14.33721	78.57794	61.57374	34.45311	30.12	6.2	0.00	7.71	0.01268	0.01289	0.01636	0.00781	0.00580	0.00637	0.00467	0.01265	0.01680	0.00676	0.00690	0.00879	0.01487	0.01093	0.01195	0.00219	0.00621	0.00869
78580	8.99059	11.04020	7.66870	26.16141	24.84133	19.19743	45.31647	34.70224	27.19131	13.97941	12.49483	11.80026	18.04113	15.12799	16.10113	58.11342	57.03119	48.06102
78750	13.97981	12.56651	11.50231	48.05953	50.54392	48.82309	45.32288	30.92193	20.75741	42.19063	32.32594	38.63447	16.35256	18.99733	14.40969	96.68971	70.20240	80.48126
78910	13.18349	14.16562	9.46705	33.14119	32.07487	37.30641	44.13935	32.27149	19.01155	45.33846	22.52385	22.76159	19.51180	13.81794	13.26672	67.36993	60.80526	50.30369
79070	9.79271	9.90451	9.80285	33.03076	23.09856	19.74345	45.96712	31.39702	23.76666	27.82858	36.68137	29.28895	16.04975	17.08359	12.46518	73.37399	71.07777	68.17617
79230	6.87381	7.11153	5.03623	57.39678	35.54808	34.63998	43.40573	29.69912	21.60368	24.09957	23.06251	19.57533	16.78013	12.05901	10.82563	56.49942	50.61815	33.41325
79400	5.55627	4.98983	3.88394	38.40370	27.60184	19.97800	41.01088	28.04138	16.34773	13.34277	11.89770	11.05450	13.59311	11.20620	9.54701	49.22506	35.65401	24.18099
79560	5.67560	5.87206	4.92560	27.55318	23.00972	20.70973	41.24404	28.17485	16.64082	20.43052	14.29019	11.37000	14.24125	11.99612	10.87936	48.67364	35.68282	24.15920
79720	6.25755	5.43576	4.02039	21.66523	21.23491	20.43501	41.00394	28.27808	16.80105	14.16961	11.90249	10.85643	14.12997	11.50302	9.72366	49.28140	35.75404	24.21593
79890	5.62743	5.16668	4.02982	21.41001	19.07940	17.33545	40.70598	28.11274	16.44728	14.68589	15.18196	17.06710	13.49585	11.16650	9.48047	57.64032	45.27297	38.10089
80050	5.41184	4.90020	3.76485	27.05527	21.05668	18.55901	40.84075	28.01508	16.41955	14.63130	14.26279	16.07717	13.84469	11.42028	10.39285	52.03985	40.09254	31.49020	30.12	6.1	0.00	7.65	0.01268	0.01289	0.01636	0.00781	0.00580	0.00638	0.00467	0.01265	0.01680	0.00676	0.00690	0.00879	0.01488	0.01093	0.01195	0.00219	0.00621	0.00869
80220	7.08356	6.21468	4.43721	28.34202	27.75982	23.06658	41.37467	28.69922	17.25702	16.59085	13.82284	13.17579	15.77088	12.90233	10.35472	49.48619	35.90195	24.19905
80380	5.86129	5.57643	4.43223	21.28597	19.04345	17.45058	41.04478	28.41984	16.33842	13.14370	11.88768	11.06713	13.37384	11.05455	9.35235	49.41308	36.11814	24.61725
80540	5.28402	4.79634	3.68774	21.81580	19.49048	17.63444	41.13572	27.98844	16.25804	12.87003	12.11524	11.13705	13.42436	11.11692	9.47912	49.40268	36.40484	24.84947
80710	5.39894	4.89210	3.72323	21.77842	19.43489	17.54136	41.12027	29.08078	16.68323	13.00139	12.18098	11.20201	13.83194	12.08331	10.72132	49.41829	36.30738	24.66704
80870	5.80124	6.24289	5.55226	21.81404	19.44589	17.69326	43.07628	30.82628	19.24450	13.11364	12.25948	11.27408	14.31502	11.93259	10.20288	49.78408	36.50525	24.79887
81030	6.58038	6.67114	5.87449	21.84670	19.47428	17.73832	42.31583	29.10620	16.97482	13.08398	12.24845	11.30872	14.03543	11.63958	9.91000	50.27658	37.28874	26.35304
81200	5.55171	5.04153	3.77497	26.64748	23.19271	18.36657	41.14838	28.08677	16.36924	13.57379	12.61263	11.66516	13.41614	11.13585	9.45177	49.81653	36.76254	25.08073
81360	5.35331	4.84662	3.66699	22.22425	19.96412	18.16259	40.84348	28.09233	16.31569	13.51202	12.69124	11.87109	13.41545	11.11443	9.43696	50.91478	38.62091	26.30681
81520	5.33753	4.82666	3.64178	24.49525	25.46557	26.85899	40.96432	28.03845	16.35745	19.91737	13.45968	11.92806	13.42937	11.09806	9.42768	50.38493	37.21003	26.12739
81690	5.33697	4.85967	3.69260	23.02748	20.09672	18.27032	41.15912	28.11911	16.35037	13.62772	13.26688	13.66774	13.45927	11.16235	9.44084	50.56015	37.29117	25.65517	30.17	6.1	0.00	7.91	0.01268	0.01289	0.01636	0.00781	0.00580	0.00638	0.00467	0.01265	0.01680	0.00677	0.00690	0.00879	0.01488	0.01093	0.01195	0.00219	0.00621	0.00869
81850	5.33403	4.87179	3.65441	23.02222	20.72549	18.67959	40.81978	28.22411	16.43123	13.96046	13.29399	12.86132	13.46784	11.12365	9.43399	51.14273	37.62693	25.70820
82020	5.32991	4.85995	3.63821	22.76879	20.46666	18.58332	40.79122	28.12391	16.41970	13.86995	13.09539	12.10792	13.51414	11.16266	9.45699	50.86824	37.54220	25.81855
82180	5.34998	4.85989	3.64191	22.88335	20.51781	18.74099	41.27675	28.11095	16.38856	13.93483	13.05485	12.04610	13.49827	11.17471	9.43258	51.06265	37.58475	25.82056
82340	5.35860	4.84129	3.63319	22.80133	20.43315	18.64507	40.87166	28.16131	16.43568	13.95283	13.17114	12.19467	13.46249	11.13970	9.43285	51.12419	37.68717	25.87020
82510	5.33542	4.83384	3.64748	22.84957	20.47513	18.68995	40.94724	28.21311	16.42801	14.00711	13.18280	12.13113	13.49679	11.15452	9.45883	50.73673	37.63972	25.83585
82670	5.38524	4.90796	3.67100	22.85200	20.57966	18.74326	40.86893	28.21939	16.45551	14.09248	13.20106	12.24266	13.50442	11.15958	9.43296	50.94070	37.68605	26.00731
82830	5.32017	4.85687	3.64540	22.93090	20.55390	18.73653	41.61896	28.20605	16.43655	14.01048	13.10294	12.07908	13.50542	11.15760	9.44138	50.79032	37.52512	25.67499
83000	5.32297	4.86282	3.61883	22.75855	20.38816	18.59985	41.36984	28.17877	16.39939	13.83102	13.00624	11.97120	13.45447	11.12037	9.40841	50.97713	37.69612	25.91063
83160	5.30253	4.84627	3.61608	22.84586	20.48889	18.68169	41.28673	28.20396	16.42715	13.95370	13.16057	12.17127	13.47359	11.15153	9.47237	50.94070	37.72416	26.01455
83330	5.33597	4.85621	3.64471	23.05096	20.73223	18.86007	41.50554	28.23254	16.36909	14.02095	13.17718	12.09233	13.44140	11.11671	9.42581	50.67326	37.61977	25.89107	30.17	6.1	0.00	7.60	0.01268	0.01289	0.01636	0.00781	0.00581	0.00638	0.00467	0.01265	0.01681	0.00677	0.00691	0.00879	0.01488	0.01094	0.01195	0.00219	0.00621	0.00869
83490	5.33752	4.84712	3.62069	22.89493	20.51582	18.68766	41.26217	28.18651	16.41370	13.92880	13.08024	12.09267	13.46291	11.12549	9.42046	50.85784	37.69508	25.98033
83650	5.31273	4.82657	3.60278	22.96875	20.58643	18.72530	41.41268	28.70836	16.81046	13.96941	13.07956	12.04179	13.83096	11.60404	10.10137	50.94840	37.70797	25.95533
83820	6.77339	6.65523	4.26372	23.69089	21.11771	18.77935	41.08590	28.47413	16.79640	13.99738	13.20119	12.28449	14.43233	11.70861	9.44755	50.91208	37.75743	26.04431
83980	5.40548	4.82987	3.60132	23.03457	20.82448	19.00150	41.13073	28.43152	16.70141	14.26157	13.27442	12.25736	13.62759	11.23463	9.51948	51.35687	38.19862	26.22075
84140	5.88309	5.48669	4.27238	23.31227	20.95906	19.10311	41.50991	28.49537	16.56921	14.23644	13.38270	12.30846	13.85150	11.58149	9.79633	51.16293	38.41529	26.57061
84310	5.50276	5.03590	3.76082	23.56654	21.13381	19.26793	40.99684	28.31361	16.46367	14.34251	13.46364	12.51030	13.50531	11.20213	9.51182	52.21378	38.48595	26.63272
84470	5.37749	4.88774	3.67457	23.49485	21.10746	19.23240	41.20684	28.28445	16.43373	14.41568	13.59326	12.60894	13.53670	11.23242	9.56780	52.12471	38.67313	26.76331
84630	6.07784	5.72065	5.15848	23.84164	21.44413	20.17805	43.19093	37.10084	45.57137	14.60992	13.90757	12.76692	19.43255	15.87963	19.63640	52.40135	38.82870	27.12791
84800	11.87352	27.07194	21.72719	24.29552	22.05945	20.34794	36.44931	37.98554	34.49123	15.44347	14.30600	13.30052	27.54348	16.17669	18.03523	52.57822	39.23118	27.35645
84960	34.36837	13.33025	19.04169	24.20319	21.76701	19.94292	54.76556	44.14877	32.69806	14.96052	14.21285	13.12093	35.48913	25.44341	38.67812	52.29481	39.39055	27.61572	30.17	6.1	0.00	7.73	0.01268	0.01288	0.01636	0.00781	0.00580	0.00637	0.00468	0.01265	0.01681	0.00677	0.00690	0.00879	0.01488	0.01093	0.01195	0.00219	0.00621	0.00869
85120	31.60528	32.55628	25.19724	24.66041	22.22440	20.30356	49.74103	38.18963	36.51735	32.95092	73.45263	63.72382	29.56170	27.87105	23.99413	125.02573	101.92552	107.47595
85290	20.82121	13.31742	23.96909	76.18749	79.62775	81.50113	36.06908	27.46161	31.97530	57.10373	68.94256	55.39756	34.18267	21.61590	26.58990	82.25907	87.23566	91.98261
85450	28.03872	27.95712	16.76507	83.22048	64.59976	70.26809	53.62620	38.94417	30.23159	66.77089	67.30368	66.02464	24.30171	25.21612	30.28110	97.94523	81.00262	91.98261
85610	21.63626	21.56126	23.60027	81.02995	68.88728	75.83380	49.51136	35.18716	36.27459	64.65220	76.80660	71.38637	28.98403	27.54721	27.01570	88.91655	91.17197	62.91795
85780	18.46134	14.80965	13.42006	61.30281	56.40087	45.12856	44.19955	32.12715	29.61119	42.52270	41.56440	53.81906	28.37261	20.41877	21.07097	91.70369	100.94112	117.28424
85940	35.01971	18.72505	11.97517	96.18614	90.38659	79.57429	47.58756	40.06712	26.14803	90.70473	87.94425	95.61341	25.46088	23.98873	18.50854	73.20790	106.69476	55.73802
86100	17.99207	16.58538	15.77688	79.04413	70.76825	84.32255	46.51765	34.70534	26.90711	57.87554	75.42753	77.43607	29.36482	16.40930	13.63149	104.23132	91.65399	92.62210
86270	14.23598	11.94439	12.56777	80.45654	57.39499	67.64861	47.24560	29.06831	18.51609	79.91862	53.02089	84.36754	16.47725	13.29567	13.55248	80.71757	83.55841	37.80078
86430	9.94837	10.45054	8.31354	29.47564	28.00905	25.71123	43.00055	29.57457	20.81886	28.90949	29.75498	34.73670	16.34025	16.18713	17.51168	66.79527	46.59572	37.21168
86600	10.63839	11.09802	6.79385	46.66126	89.12228	93.82147	43.81993	29.08652	16.85549	93.68026	71.59348	91.91622	13.72068	11.41880	9.68720	84.42014	73.17478	100.75535	30.12	6.3	0.00	7.67	0.01268	0.01288	0.01636	0.00781	0.00581	0.00637	0.00467	0.01265	0.01681	0.00676	0.00690	0.00879	0.01488	0.01093	0.01195	0.00219	0.00621	0.00869
86760	5.35754	4.85303	3.63035	87.23411	87.56664	85.55468	40.91744	28.14727	16.36828	68.02052	82.22869	82.32620	13.43987	11.12340	9.41585	83.75323	83.17954	82.98062
86920	5.35653	4.85054	3.66028	70.30933	67.37251	75.80909	40.82991	28.09155	16.37641	71.18842	71.53413	69.45126	13.44167	11.12254	9.42638	90.68470	64.77992	48.94589
87090	5.31408	4.78775	3.60533	41.12161	55.34742	54.83933	41.14810	28.09130	16.36003	58.36971	54.34776	60.22318	13.43085	11.09462	9.37158	93.24403	60.97486	41.91798
87250	5.27063	4.76526	3.58252	32.36263	27.38875	20.17247	40.64374	28.10759	16.37157	14.28088	13.32821	12.23447	13.44074	11.10310	9.40371	51.43626	38.29793	26.34989
87410	5.30316	4.82145	3.60182	23.23011	20.83773	18.99835	40.73369	28.15117	16.35536	13.96512	13.16015	11.98027	13.39294	11.06372	9.35530	51.20955	37.87177	26.04427
87580	5.24479	4.76186	3.54556	22.96153	20.52790	18.64277	40.97391	28.04296	16.24405	13.75356	12.86886	11.72967	13.31500	11.00054	9.30010	50.87884	37.79172	25.92638
87740	5.20431	4.70782	3.52908	22.80511	20.53767	18.98236	40.90508	27.97350	16.21070	17.78994	16.90058	16.76367	13.24014	10.92384	9.20680	56.14904	41.12867	28.89359
87900	5.12868	4.63754	3.45600	22.68260	20.20320	18.31846	41.08923	27.93310	16.18932	13.71790	13.29553	12.11175	13.24072	10.94292	9.22469	50.98787	37.71849	25.95311
88070	5.15546	4.65949	3.47923	23.47451	20.47783	18.31328	40.77017	27.88058	16.16379	13.35740	12.56145	11.47603	13.22369	10.89509	9.20598	50.42542	37.42861	25.71191
88230	5.11099	4.60087	3.43397	22.53296	20.15234	18.37192	40.45791	27.89789	16.13854	13.31429	12.54016	11.63189	13.17798	10.88026	9.18681	51.36161	42.57552	44.45262	30.17	6.2	0.00	7.67	0.01268	0.01288	0.01636	0.00781	0.00580	0.00637	0.00467	0.01265	0.01681	0.00676	0.00690	0.00879	0.01488	0.01093	0.01195	0.00219	0.00621	0.00869
88390	5.09947	4.58147	3.41181	40.13477	27.65663	23.80347	40.64201	27.75805	16.06158	18.59632	31.64096	51.11918	13.14556	10.83398	9.12865	90.67987	116.13650	99.00201
88560	5.05022	4.54713	3.37506	78.21678	86.82862	87.40207	40.87051	27.77494	16.06335	90.41027	84.48972	93.27435	13.16252	10.85599	9.14932	83.91100	135.59560	103.70205
88720	5.06305	4.56049	3.41039	98.34109	87.14865	74.50539	40.26941	27.83106	16.09234	82.30096	79.92574	88.48358	13.15869	10.82977	9.12319	93.23920	113.62335	119.79643
88880	5.02352	4.51576	3.34997	109.32721	90.49712	110.65607	40.71580	27.77419	16.04242	95.11030	98.62666	86.50036	18.29195	16.01077	10.98870	92.43877	104.68517	125.39259
89050	9.30857	10.41299	4.97556	104.90888	117.35290	136.30556	37.84437	26.86387	17.18857	91.31541	97.18085	103.95276	16.55795	14.39288	14.41388	92.06137	101.92264	121.33793
89210	7.56629	5.57061	3.83391	113.38186	92.64369	88.76966	40.51714	27.74307	15.99610	99.47748	97.57305	107.56289	13.02020	10.76120	9.10560	125.01974	135.59560	106.29716
89370	4.98835	4.44706	3.34290	100.16430	99.71701	88.34765	40.84047	27.67404	15.92911	97.34174	97.98127	96.29103	13.05977	10.72061	9.03664	92.43877	95.52227	97.20860
89540	4.97038	4.45135	3.30598	92.90493	102.31212	95.19682	40.58868	27.64471	16.00387	94.95763	68.73622	92.00435	13.08533	10.76759	9.21902	82.53479	59.33477	43.13019
89700	5.25149	4.72387	3.63157	60.59646	41.33721	36.25415	44.64134	30.36743	19.12792	48.28614	34.71866	53.86055	18.83164	17.06007	18.06763	125.01974	96.67739	88.62958
89860	11.48247	10.09428	7.35139	79.62268	65.62924	75.23449	51.00973	38.67226	27.38082	103.53010	96.61788	113.26651	21.08815	21.13256	17.40523	89.46272	96.27705	96.76962	30.17	6.0	0.00	7.59	0.01268	0.01288	0.01636	0.00781	0.00580	0.00637	0.00467	0.01265	0.01681	0.00676	0.00690	0.00878	0.01488	0.01093	0.01195	0.00219	0.00621	0.00869
90030	17.06806	14.04169	15.21485	95.60375	69.15018	65.70854	47.48151	37.69050	26.61867	34.79477	27.00561	31.31848	21.19973	21.38740	18.88060	83.27232	101.25544	66.12237
90190	17.42209	13.26191	13.05034	85.00045	91.70350	98.92802	51.73690	34.43537	22.15439	59.54601	93.65056	65.96544	25.40257	18.23456	15.10913	91.69415	90.59721	53.65779
90350	10.52325	9.54586	9.01685	48.13730	90.84408	89.76511	48.40234	34.83107	26.30615	95.74341	57.94382	73.84322	20.39052	15.35195	13.21195	125.01620	93.25424	69.37044
90510	9.32782	8.35811	7.23102	120.31295	79.51110	79.77983	50.39905	33.62516	22.00373	45.97381	54.42547	66.80781	18.12805	18.46631	16.61808	89.18101	96.67711	83.19655
90680	14.18118	14.57345	13.07902	49.37337	66.39507	81.83734	48.68223	34.92174	25.94270	38.00961	36.52439	45.61523	22.54280	18.16607	15.94750	94.10577	102.63694	87.21450
90840	11.55344	11.29345	10.71148	76.72452	86.59525	125.31860	48.64644	36.71206	27.66124	94.08549	55.97902	71.83516	22.31830	18.52612	17.47612	125.01620	79.53729	78.18434
91010	12.76241	13.47515	12.24615	97.12181	75.73816	69.27284	45.71099	32.35213	20.57982	33.27218	25.52518	26.72428	19.11541	18.58824	18.78512	125.01620	94.00648	103.70109
91170	11.06561	10.71966	9.96322	92.79760	81.42564	102.29274	46.12106	33.36978	21.05155	95.74341	94.94734	91.04108	18.17095	14.15269	14.48143	93.23566	83.89047	103.41938
91330	10.73439	9.27012	7.65299	29.38369	33.91905	58.87636	44.82775	32.28370	22.39161	74.37172	58.97211	64.18531	18.34983	13.58119	11.21024	86.51472	98.95969	77.92059
91500	9.13821	8.56493	6.06544	85.39920	114.47669	84.77246	43.49015	30.69148	20.84604	61.20379	51.51425	39.97310	21.06988	20.23878	14.09548	87.63896	94.82109	57.94323	30.17	6.2	0.00	7.56	0.01267	0.01288	0.01635	0.00781	0.00580	0.00637	0.00467	0.01265	0.01681	0.00676	0.00690	0.00878	0.01488	0.01093	0.01195	0.00219	0.00621	0.00869
91660	11.97524	10.45409	12.17543	59.74580	63.76409	47.27266	46.34270	33.15569	21.70219	69.06351	66.38846	20.16874	17.82362	16.14714	16.06736	89.18046	83.89162	68.89411
91820	10.51922	10.79652	9.59597	95.05635	38.42152	35.81133	45.46924	32.76004	21.69480	25.77445	29.49900	27.01096	18.98728	15.68088	13.40958	74.51709	63.36351	72.86992
91990	9.91267	10.46384	9.08829	50.55327	36.15159	41.72166	45.10959	31.58558	18.97389	26.72590	23.29342	26.71199	15.90966	13.38714	11.44600	63.70339	59.78436	48.93987
92150	7.27225	6.77062	5.82677	53.91706	84.90158	104.52483	44.05327	31.39208	23.36099	99.47466	87.27176	105.24107	21.52954	17.93747	20.52169	96.68352	93.40138	73.27051
92310	15.86844	17.28945	12.14679	80.30110	82.38844	80.43289	50.67913	37.81587	31.13145	35.05077	50.83219	35.81584	27.11896	25.73876	22.43888	86.09745	99.22060	70.29877
92480	18.02543	17.95920	16.02199	65.21976	56.40278	42.96299	49.85320	36.44214	31.00422	71.67464	61.09259	55.80496	26.37095	23.69398	20.85508	79.47688	97.75457	59.32953
92640	16.96760	15.37735	13.89297	55.63665	62.53324	63.67208	49.89359	36.96808	23.78926	43.04968	45.59293	46.27143	24.02514	19.22581	17.73725	67.97783	62.65948	40.71525
92800	18.21570	22.01789	18.26183	42.98264	36.24423	26.23218	48.95736	37.52953	32.83887	19.59424	20.97190	28.09507	27.07084	24.37306	24.75727	70.00307	47.72426	36.35484
92960	20.48608	17.32590	15.38530	27.99001	28.07926	25.15794	54.42308	39.72475	29.47286	19.98055	18.19435	16.40214	27.36813	22.68161	19.16757	63.68167	45.65226	33.10422
93130	14.70812	16.82910	21.47295	32.85139	29.10510	26.50161	50.96337	40.41884	30.48982	20.94823	24.60762	25.41909	33.59383	25.51977	24.59307	63.92380	46.22930	30.19631	30.23	6.3	0.00	7.99	0.01268	0.01288	0.01636	0.00781	0.00580	0.00637	0.00467	0.01265	0.01681	0.00676	0.00690	0.00878	0.01488	0.01093	0.01195	0.00219	0.00621	0.00869
93290	23.71437	20.70377	18.90432	35.09496	29.37459	26.94530	53.99016	39.59215	29.74674	24.85197	22.38158	25.84758	24.21610	23.67588	20.77962	67.27076	45.62731	35.29870
93450	15.58257	18.96688	16.18554	28.91174	24.94442	23.47618	54.79905	39.25861	27.22907	22.97547	19.11314	20.03595	30.17360	25.26100	23.37234	57.85032	40.90672	29.99236
93620	18.14423	16.16117	16.38803	29.34748	24.13001	23.78381	50.45494	41.41366	28.11615	24.71601	19.87856	19.45566	25.50612	27.40537	22.51256	59.19602	43.05110	30.03596
93780	18.12332	17.61581	14.77073	29.28642	26.33756	23.10858	50.70410	35.63278	26.62267	22.40778	21.54771	20.23968	23.41601	18.83528	19.22409	58.96329	43.18013	29.59705
93940	11.95045	13.67522	12.04721	28.86697	29.93318	28.71560	49.02512	35.35377	23.07655	23.91150	20.77418	20.41034	20.55029	15.27425	13.70088	56.57877	51.06567	33.93439
94110	11.47036	9.68372	9.20787	30.20099	27.44254	25.79001	45.45065	33.24257	19.41462	19.38443	17.93626	18.48426	16.97054	15.36141	14.37891	59.49119	44.71469	30.75218
94270	10.18044	9.45750	7.85901	27.89507	25.29814	23.12849	43.67982	30.36197	19.67111	18.03105	16.31729	15.90895	16.63982	14.27827	12.45506	53.29970	43.19564	32.26902
94430	8.26358	8.29211	7.67505	27.88651	26.70219	25.72235	43.97577	31.61161	19.52443	20.07145	19.93349	23.20847	17.39504	15.32880	12.41560	62.38229	49.74155	31.14158
94600	8.66456	8.35677	6.37892	28.05542	25.41640	22.67714	42.30452	30.41367	18.33170	17.84108	17.06779	16.86227	16.09058	13.92728	12.03715	51.35182	40.52500	28.31738
94760	8.52691	7.60331	6.71994	27.34410	23.58271	22.27130	43.29504	31.91522	19.30811	15.81864	15.58733	13.34746	16.05902	13.29334	11.28737	50.68918	37.72854	26.81150	30.17	6.2	0.00	7.64	0.01268	0.01289	0.01636	0.00781	0.00580	0.00637	0.00467	0.01265	0.01681	0.00676	0.00690	0.00879	0.01488	0.01093	0.01195	0.00219	0.00621	0.00869
94920	7.73364	6.68909	5.51317	25.80299	22.56772	20.59502	42.10656	30.00040	18.26362	17.46475	16.60043	15.02359	16.26133	13.45214	12.04934	51.25520	39.67898	30.03815
95080	7.16926	6.60563	5.94700	24.24779	23.33526	20.20914	43.40722	29.91878	17.98553	14.19795	15.12421	14.96623	14.97374	12.89343	11.95075	50.97731	38.90785	25.85656
95250	7.49276	6.53957	5.57562	23.99796	21.23640	22.38890	43.00133	29.98993	18.37611	15.63492	15.74380	14.38482	15.42724	13.14780	11.17296	51.59270	37.36011	25.42802
95410	7.26595	6.28696	4.92030	25.13574	21.32088	19.84898	41.91798	29.33384	17.80007	14.39717	13.91902	15.43553	14.28062	12.41182	11.50894	49.69849	36.59770	25.23435
95570	7.55695	7.67837	5.96104	21.81089	19.41793	18.69651	42.29719	29.95826	17.92973	14.60820	14.08242	13.60578	15.40617	12.91445	10.66778	50.31747	38.05693	26.57612
95740	6.86247	6.52129	5.14374	23.04517	20.45676	18.80130	41.91646	29.69724	17.58265	13.46743	13.77309	12.48569	14.52231	11.91635	10.39473	51.00781	37.01157	24.99439
95900	6.72221	6.34021	5.32230	21.59321	19.51917	20.97913	41.52045	29.39240	17.66745	14.00313	13.37674	12.54870	14.46286	12.72106	11.27853	50.95298	37.54098	25.48445
96070	7.01409	6.72728	5.82537	23.50075	21.34126	19.73086	42.55769	29.60315	18.07445	16.35858	14.92380	13.71686	15.42143	13.27056	11.63131	51.56037	38.16844	26.31311
96230	6.78772	6.17602	5.22281	22.25273	22.46653	21.82745	41.83027	28.79163	17.09837	14.90267	12.71433	11.25042	14.47894	12.25753	10.77031	49.01500	36.45324	25.39210
96390	6.64401	5.94364	4.93526	22.85043	21.27546	17.91425	41.96543	29.24955	17.68098	16.10739	13.25943	12.71915	14.73868	12.92511	11.02091	51.44931	36.63008	26.95840	30.17	6.2	0.00	7.57	0.01268	0.01288	0.01636	0.00781	0.00580	0.00637	0.00467	0.01265	0.01681	0.00676	0.00690	0.00879	0.01488	0.01093	0.01195	0.00219	0.00621	0.00869
96560	6.79488	6.03039	5.13551	26.40163	21.51529	20.86878	41.69598	29.83563	17.80180	16.03869	15.02367	15.10965	14.92836	12.86919	10.53313	52.59845	39.59573	27.64386
96720	6.63311	6.32231	5.07109	25.55053	22.39383	20.39448	41.79899	29.02955	17.19991	14.42907	12.91708	13.05488	14.32380	12.24532	10.56306	49.89140	36.69777	24.66376
96880	6.80110	6.51011	5.61273	23.01541	20.33777	18.53952	41.51203	29.04503	17.70381	14.34802	13.76638	12.88013	14.88791	13.07201	11.07769	50.90259	38.15700	26.86814
97040	6.63095	6.25313	5.29381	23.46763	21.25219	20.85086	42.18759	29.63744	18.22457	15.46734	14.08427	12.54437	14.35813	12.63395	10.77148	50.42448	36.78532	25.84128
97210	6.44688	6.37257	5.23212	21.35294	19.09243	18.41970	42.23451	29.18317	17.67830	13.85118	13.49498	12.27615	14.64239	12.27942	10.79634	50.31557	38.13825	26.34085
97370	6.81719	6.39900	5.48141	23.07617	20.81721	18.23067	41.82904	29.52002	17.26894	15.42705	15.59291	14.34669	14.77264	12.69244	11.32180	51.65577	38.56640	26.38763
97530	6.77969	6.45778	5.15460	23.54865	21.35496	18.52202	42.74414	29.10607	17.57069	15.53840	13.42035	12.60428	14.27436	12.34275	10.98070	52.49866	37.32469	26.06564
97700	6.66205	6.31247	4.98755	22.34549	19.93760	17.96221	41.96543	29.09320	18.24475	13.55827	13.11901	14.01775	14.71964	12.48864	11.52643	50.12917	38.34047	26.87749
97860	6.62863	6.66782	5.34607	23.59267	20.04942	19.59004	41.98376	28.90205	17.33829	15.97227	13.71808	14.22371	14.53113	12.67635	10.52214	49.64314	37.78573	26.26712
98020	6.80141	6.29366	4.92472	24.62855	22.63739	19.94799	42.37529	28.97002	17.95186	14.01587	13.91459	10.89325	14.87400	12.80251	11.29128	50.24063	37.98769	27.34522	30.17	6.3	0.00	7.57	0.01268	0.01289	0.01636	0.00781	0.00580	0.00637	0.00467	0.01265	0.01681	0.00677	0.00690	0.00879	0.01488	0.01093	0.01195	0.00219	0.00621	0.00869
98180	6.76992	6.48554	5.87404	24.10646	21.16529	20.91725	42.26773	29.59634	17.90391	14.99201	13.86245	12.53106	14.90114	12.33307	10.78713	49.43629	36.80051	26.51956
98350	7.44700	6.39685	4.91690	24.47309	21.62466	18.99963	41.72871	28.91486	17.39049	13.76635	13.89150	12.33029	15.07533	12.67935	11.14934	50.27465	36.60427	26.27212
98510	7.61192	6.58470	5.79314	22.04779	21.00463	18.52472	42.51945	29.97240	18.33480	13.66357	12.28571	12.28541	15.55445	13.35535	11.04485	50.70988	36.24766	24.59520
98670	7.39210	6.60576	5.49477	24.54434	22.04476	19.74733	42.49045	29.12214	17.28695	14.34714	14.17635	13.88726	14.44510	12.13498	10.57184	49.71158	37.89357	26.93684
98840	6.41565	5.88034	4.59262	24.16567	22.76644	22.38413	41.71679	28.67447	16.86933	14.85844	15.55784	15.21351	14.06909	11.94311	10.63287	50.30308	38.91701	27.99741
99000	6.45543	6.02433	5.18691	23.65318	21.04603	20.05172	41.71530	29.12758	17.52618	17.53568	13.93619	15.13624	14.55710	11.89419	10.14602	49.28084	39.22872	25.12858
99160	6.01976	5.22376	4.21419	22.04860	20.66016	20.68182	40.90767	28.19833	17.02935	14.26045	13.04154	11.84439	14.36954	11.93756	10.39668	49.20402	36.28699	25.13743
99330	6.34551	5.84168	4.91113	21.54559	19.86258	18.92351	42.01144	29.58794	17.20978	14.14233	12.25158	12.58390	14.15671	11.89368	10.24237	48.93720	35.53612	25.05929
99490	7.00582	5.86096	4.87894	22.02783	19.70215	18.01899	41.25417	28.85959	17.44333	13.60153	12.28492	11.25057	15.45681	13.09301	11.42183	49.14298	36.09810	26.51918
99660	7.85381	6.56714	5.30018	22.39711	20.29432	20.97896	42.50277	29.32941	18.23339	15.11614	15.50735	15.62984	15.87026	13.53811	12.47982	52.24318	37.92838	25.57980	30.17	6.0	0.00	7.58	0.01268	0.01289	0.01636	0.00781	0.00580	0.00637	0.00467	0.01265	0.01680	0.00676	0.00690	0.00879	0.01488	0.01093	0.01195	0.00219	0.00621	0.00869
99820	7.01097	6.36465	5.20729	25.38170	22.20935	19.62014	44.32502	30.48373	20.72933	13.88766	14.23775	12.73881	16.41893	17.19360	20.92131	53.78699	38.68539	41.50597
99980	13.83269	14.08756	13.34823	26.63110	34.12129	26.98540	47.83971	35.31556	27.19283	41.74475	28.19731	29.28682	22.21919	18.66482	18.38323	69.56388	50.23158	41.40304
100150	11.66528	11.50927	11.51929	34.82543	36.20821	28.09258	47.50207	32.45613	22.23010	31.12382	35.21434	36.64685	22.11353	16.58220	15.18925	75.24831	57.74456	39.43801
100310	9.86327	9.60832	9.08876	29.40406	37.16705	24.70887	47.90310	36.07607	22.15855	18.79971	18.95857	14.37574	18.68357	16.77798	12.47476	52.30557	41.60869	26.89909
100470	6.21624	6.02287	6.57313	21.83669	22.81202	28.70079	41.64489	34.54799	18.95002	30.35711	20.79985	18.14265	14.96518	13.54975	14.43626	48.48545	39.48098	41.04003
100640	10.30923	8.06763	8.19925	35.12669	25.24955	25.78558	43.35489	29.64764	18.25509	19.72081	23.64111	21.28286	16.80032	17.20510	14.96624	67.74717	59.13408	33.63329
100800	9.13168	10.43417	9.07395	26.97226	25.11926	21.70628	42.85697	29.43086	17.85906	16.16178	24.04397	16.16935	17.39071	14.71872	12.07589	47.24611	40.83218	30.33882
100960	5.50868	6.21885	5.16194	26.12055	20.23703	19.67016	42.88538	30.20619	18.25692	16.34941	12.62664	11.19530	14.39357	12.16386	9.95522	53.67472	39.91048	23.16466
101130	6.68487	5.54629	4.58002	20.49518	19.55956	21.04486	41.70272	29.39885	17.34464	14.31064	12.54294	12.01237	14.47845	12.27388	10.52195	51.67889	39.66406	28.88619
101290	7.01372	6.75486	5.37294	24.35608	25.60789	21.15901	41.47995	28.35824	16.71283	15.97590	15.90131	14.97285	13.97113	11.80369	10.62742	51.34265	38.69162	27.45507	30.17	6.1	0.00	7.57	0.01268	0.01289	0.01636	0.00781	0.00580	0.00637	0.00467	0.01265	0.01681	0.00676	0.00690	0.00879	0.01488	0.01093	0.01195	0.00219	0.00621	0.00869
101450	6.96684	6.79676	5.84714	21.80788	19.40752	21.14495	45.01599	29.40492	18.40899	17.26128	15.51520	19.05573	17.25909	13.75220	13.12910	57.31185	47.28722	36.81567
101620	9.33279	9.82388	15.06274	35.70823	35.89403	35.34105	48.62604	37.16003	25.80853	47.60284	62.32260	54.55082	26.32061	19.60583	22.76896	65.03037	54.04055	52.11458
101780	15.55306	11.69205	15.26687	36.85191	41.73236	69.07936	49.51102	35.42954	24.56986	38.34065	61.03155	33.73934	22.97049	18.20699	16.91869	71.17479	53.98329	60.57060
101940	10.68133	10.44907	9.65097	83.13888	76.46711	76.64419	44.95405	32.99545	21.42062	30.18392	21.74298	20.20514	18.49338	17.46421	16.40586	62.57807	59.92875	41.12572
102110	11.97144	9.79677	9.38622	68.23854	74.75155	40.44051	44.82520	34.24089	19.24772	63.92188	41.94457	82.14961	18.29374	22.30301	20.31879	90.05466	90.59894	107.06821
102270	11.86652	12.37260	10.06664	96.03768	135.27244	107.97352	46.80035	35.69583	22.43586	93.41401	111.04517	102.80797	17.95647	16.29240	15.81561	88.38412	135.59704	101.41507
102430	21.81220	16.68716	15.06898	106.87782	117.35485	136.30565	42.38184	28.82663	18.27136	89.49008	89.87335	76.32134	16.70880	19.26966	15.91344	91.00777	100.04356	93.82402
102590	11.77386	14.32540	10.53292	79.20643	54.70500	41.61637	40.85695	29.75683	19.73712	24.61804	26.01095	36.57271	16.28997	13.85082	15.07440	75.11541	62.72827	32.18796
102760	14.07116	10.11467	7.44527	22.03444	23.56260	28.14394	40.60329	27.89331	19.47573	23.42061	14.36036	11.32539	18.06942	16.24803	14.36557	48.29216	34.97419	23.33000
102920	8.54693	7.03339	5.99527	20.14500	17.96712	16.23766	41.07877	28.21381	21.01707	12.06453	11.40254	10.77121	17.49940	14.12886	10.37445	48.31005	35.44984	26.39474	30.23	6.3	0.00	7.65	0.01268	0.01289	0.01636	0.00781	0.00580	0.00637	0.00467	0.01265	0.01681	0.00676	0.00690	0.00879	0.01488	0.01093	0.01195	0.00219	0.00621	0.00869
103080	7.95425	6.16026	3.83858	23.01731	22.18839	21.06200	40.43365	27.69796	16.01513	17.48532	14.33663	11.48244	13.04417	10.76794	9.10896	49.45472	35.90517	24.49574
103250	5.07258	4.57956	3.47813	21.16359	19.58379	20.63594	40.47696	27.60322	16.01167	12.69550	11.46909	10.57983	13.10119	10.81907	9.14749	48.65630	35.28304	24.02377
103410	7.08852	8.67008	10.77881	22.20882	21.78511	24.73541	40.04446	27.28771	17.16247	18.20962	17.13311	17.38679	14.83807	12.92352	11.78415	55.65557	39.60069	24.76015
103580	8.02230	8.97216	7.52362	20.61849	18.62219	18.29700	41.79538	29.80335	18.03526	15.41540	12.99309	12.45368	15.87358	15.09800	13.52430	50.14166	37.13728	25.93754
103740	11.10195	6.56843	5.98047	24.61645	21.63458	18.29107	40.39052	27.49621	16.37885	12.16448	10.97500	9.97602	14.03855	11.27097	9.25912	48.02510	34.86177	23.27749
103900	5.03882	4.52294	3.44952	20.41384	18.11797	16.31128	40.62138	27.64120	16.02236	11.73197	10.90095	10.03257	13.20875	10.92725	9.27153	48.28677	35.00965	23.38554
104070	5.18625	4.63660	3.52529	20.48424	18.23015	16.40684	40.81952	27.77405	16.07393	12.03845	11.21995	10.46729	13.12078	10.81888	9.15608	48.98500	36.93129	25.75478
104230	5.06841	4.55468	3.41802	20.68312	18.32534	16.42262	40.74357	27.65419	15.98329	12.08835	11.31666	11.43149	13.07128	10.77980	9.09317	53.93656	36.77788	23.75572
104390	5.05005	4.51516	3.40937	20.81723	18.53556	16.76662	40.56283	27.60322	15.91416	12.28193	11.43120	10.54820	13.01293	10.72823	9.06600	48.65148	35.35545	23.82146
104560	5.00087	4.47077	3.36181	20.82301	18.50662	16.73451	40.25909	27.59837	15.91831	12.28702	11.32913	10.57606	13.01233	10.74874	9.07389	48.77898	35.48480	23.88716	30.17	6.0	0.00	7.58	0.01268	0.01289	0.01636	0.00781	0.00581	0.00637	0.00467	0.01265	0.01680	0.00676	0.00691	0.00879	0.01488	0.01093	0.01194	0.00219	0.00621	0.00869
104720	5.00930	4.50427	3.38381	20.89082	18.56903	16.78665	40.11840	27.66120	15.94704	12.33934	11.42598	10.66050	13.02932	10.73174	9.08937	48.94647	35.67877	24.08066
104880	5.02205	4.51860	3.39612	21.08511	18.78960	16.95657	40.77581	27.64302	15.94606	12.43288	11.49181	10.81503	13.01164	10.74062	9.06572	49.12693	35.61673	24.01340
105050	5.00806	4.50810	3.39139	21.04621	18.73474	16.89188	41.26358	30.36879	21.42368	12.48232	11.62744	10.91804	14.77054	11.66689	11.06755	49.06139	35.72602	24.13325
105210	7.87988	7.83300	6.28333	21.10032	18.86049	17.08564	39.72126	28.02921	17.31186	12.62620	11.74743	10.87783	16.76625	16.14626	13.83115	49.11176	35.68106	24.03379
105370	7.71717	7.64688	5.42116	21.06862	18.72562	16.95664	42.18171	28.17649	18.81970	12.41710	11.50283	10.62715	19.37200	15.43042	10.64416	49.05134	35.67785	24.03419
105530	6.91557	7.02974	6.31830	21.17235	18.78514	16.97613	41.31498	28.50044	16.30497	12.44011	11.69408	10.58305	13.13231	11.05485	9.61377	49.15732	36.04509	24.66820
105700	5.09524	4.61614	3.48086	21.67167	19.02451	17.43901	40.81386	27.78455	16.17200	12.93419	12.10005	11.14859	13.24007	10.94458	9.22872	49.79628	36.64570	24.60150
105860	5.17690	4.69456	3.60037	21.55855	19.16876	16.96490	40.61704	27.69196	16.03263	12.27765	11.59052	10.62661	13.08833	10.79001	9.11902	49.02127	35.53610	23.86775
106020	5.03938	4.52311	3.45893	20.77711	18.47416	16.63777	40.09937	27.64969	15.97447	12.17061	11.34555	10.34784	13.25144	21.01850	26.27905	48.77898	54.93717	31.63308
106190	24.10188	20.50241	25.15383	33.82758	35.40049	38.75439	60.10095	36.22152	36.24878	118.93429	93.25945	98.31333	20.10743	22.81729	23.15711	125.02063	100.63362	100.33863	30.23	6.2	0.00	7.57	0.01268	0.01289	0.01636	0.00781	0.00581	0.00637	0.00467	0.01265	0.01680	0.00676	0.00690	0.00879	0.01487	0.01093	0.01194	0.00219	0.00621	0.00869
106350	25.26178	31.40681	21.03957	56.87449	78.82063	85.74355	46.87152	40.39801	37.29577	71.83899	68.49734	71.10718	24.53110	19.95035	20.47380	125.02063	104.68827	114.40777
106510	19.82973	19.07403	20.02058	82.58862	83.34553	83.32284	50.73946	32.57951	21.56993	78.35864	78.67632	58.46829	18.99934	16.74557	19.10474	67.46321	63.98248	68.49875
106670	18.32528	16.45009	13.01966	72.08656	85.30297	57.64262	47.23243	35.65332	26.13998	83.91884	74.12082	68.99679	22.61754	19.60887	19.00148	96.68850	97.31228	94.03895
106840	7.77325	8.64670	6.55666	75.24433	80.80772	61.92806	43.20369	33.65167	19.63881	20.55361	21.19163	11.89490	17.77116	14.93385	16.87726	65.20649	89.44749	123.16246
107000	9.21305	10.60882	6.98031	105.27545	108.88452	77.47279	43.72564	32.80021	18.79431	93.67701	70.02793	86.93279	16.04566	12.47034	10.51808	91.00866	87.72378	81.66782
107160	6.06640	11.95685	10.36127	71.97990	61.33631	46.89841	44.09884	32.09379	23.48686	12.47612	13.02052	16.85488	21.93212	17.25749	15.42997	51.61228	39.40936	72.22495
107330	20.99714	21.48470	23.72170	99.11359	105.83071	103.34764	54.74462	37.57822	37.29241	120.75751	98.19602	87.73782	26.64949	28.11221	18.38171	103.04839	65.04557	36.78500
107490	16.77939	16.53408	13.90084	39.09944	46.05652	40.77877	54.16390	43.74275	28.81284	39.52549	36.63706	29.72261	26.81216	21.17866	19.75534	82.82555	86.39889	116.23098
107660	18.47596	15.83007	14.35769	50.53564	68.42898	63.03478	51.48705	41.09578	30.77633	89.57801	74.35339	61.87866	27.68688	25.44148	22.83532	99.37114	97.98670	96.91577
107820	26.25581	19.17141	19.03669	98.72131	89.12214	87.25364	55.30572	43.47498	31.47560	88.02078	84.48928	95.34612	29.60013	24.01246	26.54186	92.43912	88.68647	99.93776	30.23	6.1	0.00	7.53	0.01268	0.01289	0.01636	0.00781	0.00580	0.00637	0.00466	0.01265	0.01680	0.00676	0.00690	0.00878	0.01487	0.01092	0.01194	0.00219	0.00621	0.00869
107980	20.03502	19.66985	20.92437	65.06826	51.35025	76.02360	52.80290	42.70479	24.92969	46.83287	51.53491	90.95531	29.71975	24.67182	23.77325	82.53513	84.97400	59.21570
108150	16.96199	19.86526	14.45423	60.06957	67.32748	52.85420	51.97089	38.87446	27.73731	35.08621	53.52494	46.94370	21.50041	20.99334	18.04692	78.77036	59.61094	37.70771
108310	13.92892	13.54738	12.70753	49.76734	56.91360	45.06728	51.62356	37.15732	27.77598	39.95019	35.57441	30.10316	22.90876	20.10009	18.06551	77.06218	65.83647	54.70283
108470	15.10488	13.53683	12.86855	43.32528	43.54489	41.21008	49.13365	37.03138	25.81082	40.26718	32.28163	28.53629	21.62644	19.52702	16.63800	78.19877	59.61595	44.66761
108640	13.37637	12.23144	10.73290	39.65250	34.97964	34.42573	46.58543	34.02394	22.11019	28.55072	27.22150	26.62498	19.66318	17.31228	16.02921	61.61649	49.43862	43.59686
108800	11.68385	10.52824	9.55755	45.87464	39.51380	35.78860	45.03942	32.43003	20.72839	30.56287	29.26235	32.72143	16.75138	14.57048	13.85175	63.57823	47.69269	41.85869
108960	8.60281	8.21857	9.02495	40.88601	30.54027	31.46361	45.47713	32.18257	21.29626	27.01674	33.93302	29.51682	18.83051	16.02995	12.57442	64.93196	49.61775	38.97951
109130	7.42209	6.69632	6.21078	39.17340	44.99956	32.02304	44.25788	30.74424	20.30908	22.98857	24.05640	25.70756	16.64079	14.16645	12.95703	64.93196	54.11260	44.39145
109290	8.46032	8.26609	8.90825	37.56196	35.54508	35.11677	45.67455	31.55540	21.14594	30.35274	30.30284	34.57294	18.06559	15.56756	15.76940	70.21370	63.22217	46.38392
109460	12.02282	10.95553	9.59120	48.17448	36.25084	46.89869	44.78732	33.75085	20.38627	34.02561	31.81247	25.05309	19.71260	19.33451	21.26382	63.19651	70.17561	44.27604	30.23	6.0	0.00	7.59	0.01267	0.01289	0.01636	0.00781	0.00580	0.00637	0.00466	0.01265	0.01680	0.00676	0.00690	0.00878	0.01487	0.01093	0.01194	0.00219	0.00621	0.00869
109620	15.12849	17.18456	19.27567	60.92291	50.84701	61.13652	54.27778	44.15508	32.28338	86.47875	58.03716	57.79891	28.49686	21.92994	24.59825	87.40536	86.32779	100.13654
109780	18.48883	19.81359	18.21008	91.31996	86.75140	76.31692	51.47058	41.42985	28.96483	57.53542	54.09186	42.13128	22.07203	19.90408	16.71006	75.74483	69.37297	47.79768
109950	11.94551	10.81457	8.91364	37.93488	40.05163	38.09545	45.60854	32.70563	21.57812	30.51571	39.56637	35.58941	17.52592	14.99243	12.53604	66.72791	53.89565	40.15313
110110	9.23415	8.18186	6.06231	33.27856	31.86849	32.84027	43.17369	31.47055	18.51281	24.50228	20.08567	20.46942	15.89919	14.24140	13.29351	62.61460	49.99014	37.54799
110270	9.22884	7.68414	6.87722	30.79022	30.54117	29.37162	44.72267	31.10000	20.03849	29.91361	24.48391	24.58604	18.31109	16.41742	13.38201	66.58192	46.85445	36.79238
110440	8.93944	9.86936	6.99313	34.76999	32.32047	30.58133	45.86482	32.44235	21.90803	26.67051	24.14606	20.35825	17.16845	14.91217	12.65157	60.41832	49.66991	38.44294
110600	8.01670	7.26839	6.94806	32.09508	28.18369	29.28126	42.81623	30.29777	19.12194	21.89374	20.13394	21.15399	16.70748	14.70231	12.92702	59.81115	49.93859	36.50453
110760	8.86150	8.42385	6.62072	33.09140	28.83509	25.82489	43.41281	30.29842	18.44513	20.57315	21.26963	19.85320	16.01514	14.65786	12.29754	59.97448	45.13742	35.04795
110930	7.51858	7.66452	6.44877	31.15794	28.56937	27.18746	43.40398	30.74050	19.82394	21.67721	21.67949	21.24924	17.13323	13.89086	12.14197	59.56387	45.70464	34.03712
111090	8.28211	7.55517	6.40133	32.11070	29.71630	27.49473	43.54286	30.74972	19.30400	22.20080	19.80176	19.84073	16.12437	13.44086	12.02797	57.89914	44.17690	32.78663	30.23	6.1	0.00	7.67	0.01268	0.01289	0.01636	0.00781	0.00580	0.00637	0.00467	0.01265	0.01680	0.00676	0.00690	0.00878	0.01487	0.01093	0.01194	0.00219	0.00621	0.00869
111250	7.56670	7.91231	6.31250	29.65130	26.85304	25.27572	42.62202	30.53632	19.14574	20.03117	18.63603	16.99208	15.94923	14.99686	12.79170	57.03714	43.90552	31.17206
111420	8.58337	7.75810	6.16784	28.74918	25.10172	23.23210	44.16108	30.48643	19.09352	18.51822	17.48424	15.89792	15.87394	13.63211	11.71765	55.71160	41.34434	30.20869
111580	7.43318	6.69690	5.68281	25.56015	23.53381	20.95609	42.99277	30.20239	18.21411	15.89835	15.63783	13.98135	16.17108	13.28965	11.43456	53.91775	40.01648	28.16006
111740	7.00842	7.07249	5.53763	23.98751	22.19800	20.65338	43.27622	29.83407	18.17155	15.34060	14.03187	13.15799	15.39812	13.10026	11.21828	51.20153	38.67014	26.74303
111910	7.23151	6.61061	5.55637	23.60777	20.69095	19.03063	42.12534	29.05274	17.45994	14.12934	13.53093	12.55723	14.72393	11.78633	9.97759	50.78086	37.74812	26.15967
112070	6.33817	5.55863	4.70291	23.44659	20.84962	18.95523	40.87581	28.82522	17.03225	14.13955	13.47176	12.89734	14.09920	12.00339	10.18785	50.34855	37.30233	25.60453
112230	5.89011	5.37603	4.23326	22.38297	20.17388	18.70269	41.68629	28.41354	16.95793	14.14541	13.36577	12.38910	13.78893	11.65584	9.99521	50.42892	37.33629	25.81992
112400	5.84445	5.23482	4.24122	22.71810	20.29175	18.69558	41.26144	28.38008	16.69516	13.69926	12.74972	11.68589	13.75484	11.41606	9.68444	50.40589	37.75262	26.03520
112560	5.63792	5.11963	3.93819	22.56618	20.55371	18.89854	40.44393	28.10734	16.52411	14.03984	13.25239	12.57061	13.68299	11.40083	9.68607	50.68579	37.67131	25.87515
112720	5.61359	5.11179	4.00210	22.88373	20.40445	18.32879	41.17452	28.09824	16.47979	13.71344	12.62007	11.92005	13.56966	11.15237	9.44599	49.71174	36.08336	24.58599	30.23	6.3	0.00	7.56	0.01268	0.01289	0.01636	0.00781	0.00580	0.00637	0.00467	0.01265	0.01680	0.00676	0.00690	0.00878	0.01487	0.01093	0.01195	0.00219	0.00621	0.00869
